Baseline 100%T,,blank,,DDAO-200uL+2000uL tampon,,DDAO-400uL+2000uL tampon,,DDAO-600uL+2000uL tampon1,,DDAO-600uL+2000uL tampon2,,DDAO-800uL+2000uL tampon3,,
Wavelength (nm),Abs,Wavelength (nm),Abs,Wavelength (nm),Abs,Wavelength (nm),Abs,Wavelength (nm),Abs,Wavelength (nm),Abs,Wavelength (nm),Abs,
800,-0.003836955177,800,-5.063000208E-5,800,0.0002300059568,800,-0.0001420389599,800,-0.0001454547746,800,0.0001625425211,800,0.0002244634525,
799,-0.00344050792,799,-0.0001923936652,799,5.501116539E-5,799,2.202951691E-5,799,0.0001869110274,799,-2.795675528E-6,799,-0.0003557862947,
798,-0.003532335861,798,-8.386244008E-5,798,0.0002540674177,798,-0.000100632984,798,0.0001963635732,798,1.786168468E-5,798,0.0001473679295,
797,-0.003550925059,797,-0.0002150073997,797,0.0002347456175,797,-1.905165482E-5,797,0.000101691985,797,-0.0001715383114,797,9.655573194E-6,
796,-0.003330524778,796,-0.0001770756935,796,-8.220605378E-5,796,-0.0003425433242,796,0.0003030232911,796,-0.0001792492258,796,8.631239325E-5,
795,-0.003253607545,795,-0.0004456312163,795,0.0003744983987,795,-0.0002336356702,795,5.467460505E-5,795,-0.000138778385,795,-0.0001368634257,
794,-0.003393559018,794,-0.0003407844633,794,0.0006095502758,794,-0.0003329212195,794,-0.0001286342158,794,9.27334404E-5,794,0.0001718132698,
793,-0.003335148562,793,-0.000172987362,793,0.0001596422226,793,-0.0002693893621,793,4.633835488E-5,793,-7.055941387E-5,793,-2.433212831E-5,
792,-0.003222620813,792,-0.000331110612,792,0.000173159875,792,-0.0004825051874,792,-0.0001100531954,792,-0.0003469921649,792,7.55418223E-5,
791,-0.003563043661,791,-0.000185459241,791,0.0003568552202,791,4.897901454E-5,791,0.0002819379151,791,0.000329679373,791,7.94706466E-6,
790,-0.003433111357,790,-0.0004132540198,790,8.178147255E-5,790,2.148540716E-6,790,4.06428735E-5,790,-8.929741307E-5,790,0.0001284392783,
789,-0.003311772132,789,-0.0003629766288,789,7.393662236E-5,789,-9.726857388E-5,789,2.547254007E-5,789,-8.298248576E-5,789,0.000142240795,
788,-0.003472249256,788,-0.0002193540568,788,0.0003198353224,788,3.919312439E-5,788,0.000219154128,788,4.802112744E-5,788,-4.545338015E-5,
787,-0.003619883209,787,0.0001081391529,787,0.0004986687563,787,0.0003315445792,787,0.0002096233802,787,0.0003153019643,787,0.0002142074372,
786,-0.003523811232,786,-3.846484469E-5,786,0.0003472955432,786,0.0001129292723,786,0.0001827416127,786,0.000334238779,786,0.0001884130616,
785,-0.003580296645,785,-0.0001917209302,785,0.0005619854201,785,0.0001501127845,785,0.0003917536815,785,0.000144519523,785,0.0004480842035,
784,-0.003503474873,784,-0.0003261959937,784,0.0003366221208,784,-3.779334975E-6,784,0.0001589171443,784,-6.812652282E-5,784,-0.000110519024,
783,-0.003508456284,783,-0.0002275298175,783,0.0003834886884,783,3.675962944E-5,783,0.0001448561525,783,6.264856347E-5,783,0.0003145507362,
782,-0.003548768349,782,-0.000200000708,782,0.0003815455129,782,3.347184611E-5,782,0.0001473420416,782,6.953527918E-5,782,0.0002388378343,
781,-0.003571875626,781,-6.993825809E-5,781,0.0005155919935,781,0.0003105614451,781,0.0004108751891,781,0.0003979719768,781,0.0004589935998,
780,-0.003621526062,780,-8.510472253E-5,780,0.0006082541659,780,0.0004217836249,780,0.0002235051797,780,0.0004121188831,780,0.0003366221208,
779,-0.003570643254,779,-0.0001879432239,779,0.0006851204671,779,5.648685692E-5,779,0.0003896550334,779,0.000445726153,779,0.0004074809258,
778,-0.003567870473,778,0.0001012259308,778,0.0006641980144,778,-6.212587778E-6,778,0.0002517881221,778,0.0003083077609,778,0.0001437426836,
777,-0.003658696078,777,-5.953364598E-5,777,0.0007610667963,777,0.0001942658564,777,0.0002515291271,777,0.0003154315054,777,0.0002834661864,
776,-0.003569359425,776,-3.245978951E-5,776,0.0005286542582,776,0.0002343053202,776,0.0001182632041,776,6.0033708E-5,776,0.0003505338973,
775,-0.003811655333,775,9.162010247E-5,775,0.0007630634937,775,0.0001517182682,775,0.0005104087177,775,0.0004392221745,775,0.0003686431737,
774,-0.003799492493,774,0.0001370101527,774,0.0007932228618,774,0.0004626992159,774,0.0004836637818,774,0.0003615444584,774,0.0006077616708,
773,-0.003912332468,773,0.0002091313072,773,0.0007468047552,773,0.000549544231,773,0.0006540093455,773,0.0003842141305,773,0.0006481503369,
772,-0.00362553075,772,5.853211769E-5,772,0.0007826940855,772,0.0002429559827,772,0.0003585132945,772,0.0003195762984,772,3.383427975E-5,
771,-0.003779528197,771,0.0001559909724,771,0.0007718284614,771,0.0001377610897,771,0.0004121188831,771,0.0005925196456,771,0.000500638329,
770,-0.003659928218,770,-5.720422268E-5,770,0.0005818920326,770,-3.447874042E-5,770,0.0003067534999,770,0.0003192913427,770,0.0004554434854,
769,-0.003642113879,769,-5.21829752E-5,769,0.0005802590167,769,5.294003131E-5,769,0.0001168649833,769,0.0001420336484,769,0.0001921163785,
768,-0.003673173022,768,4.892723518E-5,768,0.0008130363422,768,0.0001402210328,768,0.0003673218598,768,0.0003903804754,768,0.0006129720714,
767,-0.003633488668,767,0.0001528058638,767,0.0007787523209,767,0.0001561981335,767,0.0002424379782,767,0.0002394594339,767,0.0003561298072,
766,-0.003705410985,766,0.0001790383685,766,0.0009466713527,766,8.336082101E-5,766,0.0003485908965,766,0.0004378229205,766,0.0004464517115,
765,-0.003733847989,765,0.0001473420416,765,0.0009026751504,765,0.0002224692143,765,0.0004568168661,765,0.0005061843549,765,0.0005532765645,
764,-0.003606277285,764,-6.31054063E-5,764,0.0007639970281,764,0.0001235972013,764,0.0004379783932,764,0.0002309642441,764,0.0005558425328,
763,-0.003471273463,763,-5.818775753E-5,763,0.0007655788795,763,0.0001252802758,763,0.0003134627477,763,-7.081823424E-5,763,0.0001867815299,
762,-0.003730357625,762,9.317359218E-5,762,0.0009886482731,762,0.0004134403425,762,0.0005082057905,762,0.0004330810334,762,0.0002564244205,
761,-0.003318348434,761,-0.0003522169427,761,0.0005543133011,761,-0.0002093670046,761,-3.587647006E-5,761,-4.400592388E-6,761,-4.369331509E-5,
760,-0.003546457738,760,-8.971150237E-5,760,0.0006565499934,760,-3.473757897E-5,760,0.0003656119516,760,0.0002892943739,760,0.0003316481889,
759,-0.003574391594,759,-2.99749172E-5,759,0.0008171340451,759,0.0001328153303,759,0.0002048839815,759,0.0002118506527,759,0.0003371661587,
758,-0.003489043564,758,-0.00011585014,758,0.000872404431,758,-4.384861677E-5,758,0.0001469018316,758,0.0001566642459,758,0.000195094588,
757,-0.003638879396,757,-0.0001341721363,757,0.0008622368332,757,9.299235535E-5,757,0.0003147320822,757,0.0001859528275,757,0.000370171736,
756,-0.003530127695,756,1.346072395E-6,756,0.0009637677576,756,0.0002041329426,756,0.0003244205436,756,0.0003666482517,756,0.0004227941681,
755,-0.00364693976,755,1.159706881E-5,755,0.001181332394,755,0.0002369471185,755,0.0004736607953,755,0.0004123002582,755,0.0004845967342,
754,-0.003542349441,754,-8.381067892E-5,754,0.0009142963681,754,0.0003248609428,754,0.0004582939437,754,0.0002671994735,754,0.0003461556626,
753,-0.003580347868,753,0.0001109355435,753,0.001025180332,753,6.433139788E-5,753,0.0003886704799,753,0.000343798165,753,0.000553198799,
752,-0.003861124627,752,0.0002593253739,752,0.001229821704,752,0.0004335992562,752,0.000723675359,752,0.0006425506435,752,0.0006154347211,
751,-0.003644834738,751,0.0001744287874,751,0.001017033006,751,0.0002627702779,751,0.0003627621045,751,0.0003536686418,751,0.0005463821581,
750,-0.003349584993,750,-0.0002888948366,750,0.0008301793714,750,7.921178621E-6,750,4.424137296E-5,750,-2.184720688E-5,750,0.0003233066236,
749,-0.003625582205,749,4.719268327E-5,749,0.001081359456,749,3.587943502E-5,749,0.0004166273575,749,0.0003656637564,749,0.0005290430272,
748,-0.003516056808,748,-0.0001622747077,748,0.0008733900613,748,9.071390377E-5,748,0.0002833107719,748,0.0001799706515,748,0.00036872091,
747,-0.003493254771,747,-3.815424134E-5,747,0.001043291762,747,0.0001062748997,747,0.0002945786691,747,0.0003065980563,747,0.0003682804527,
746,-0.003532644128,746,-7.366521459E-5,746,0.001053800923,746,6.81372112E-5,746,0.000294449128,746,0.0004016511666,746,0.0002918847022,
745,-0.00355282519,745,2.694812974E-5,745,0.001161294407,745,0.0003417256521,745,0.0006397248944,745,0.0005757489125,745,0.0006150458357,
744,-0.00369026768,744,0.0002689608082,744,0.001404199866,744,0.0004135957861,744,0.0005095793749,744,0.0006279036752,744,0.0007425521617,
743,-0.003596265102,743,3.862358062E-5,743,0.001257469412,743,0.0003638761409,743,0.0005206976202,743,0.0003845509491,743,0.0006928467192,
742,-0.00376202655,742,0.0001227945031,742,0.001300125383,742,0.0002856161154,742,0.0007072365843,742,0.0007192933699,742,0.000738636707,
741,-0.003732256824,741,0.0001228980836,741,0.001311627449,741,0.0003837995755,741,0.0004473586741,741,0.0006453245878,741,0.0006783276331,
740,-0.003440867411,740,-0.0001647070603,740,0.0008610956138,740,6.20530991E-5,740,0.0003272442555,740,0.0003764415451,740,0.0004367605143,
739,-0.003567870473,739,-0.0001076722765,739,0.001197347767,739,0.0002690903202,739,0.0004742568126,739,0.000419607095,739,0.0006554870633,
738,-0.003635542234,738,4.349060328E-5,738,0.00122533075,738,0.0002788554993,738,0.0004399477039,738,0.0003776592202,738,0.0007220418192,
737,-0.003623477183,737,-4.177794472E-5,737,0.001157504972,737,0.0001932299638,737,0.0004193479836,737,0.0004430053523,737,0.0007436153246,
736,-0.003553595394,736,-0.0002137137344,736,0.001097345259,736,9.105049685E-5,736,0.0004876287712,736,0.00045611721,736,0.0004554693878,
735,-0.003789330833,735,-0.0001640860428,735,0.001337774214,735,0.0003302751866,735,0.0005417427747,735,0.0006251558079,735,0.0008160707075,
734,-0.003677639412,734,0.0001129551674,734,0.001298827236,734,0.0003578137839,734,0.0007074699388,734,0.0006961394683,734,0.001013011206,
733,-0.003632359207,733,-7.759920118E-5,733,0.001147330739,733,0.0002906413283,733,0.0005353409797,733,0.0005305721425,733,0.0006635239115,
732,-0.003735490376,732,-0.0001576686918,732,0.001404044102,732,0.0004814610293,732,0.0006590906996,732,0.000651390932,732,0.0008191050729,
731,-0.003791948082,731,-7.682276191E-5,731,0.001339617884,731,0.00031825513,731,0.0008439254016,731,0.0007234160439,731,0.001040774863,
730,-0.003749964759,730,-2.169189975E-5,730,0.001291401801,730,0.0002367399284,730,0.0006913688267,730,0.0005675840657,730,0.0007401925395,
729,-0.003984773066,729,0.0001622835698,729,0.001551993191,729,0.0003886704799,729,0.000854196318,729,0.0008565565804,729,0.0009537796141,
728,-0.003992826678,728,0.0001326858619,728,0.001536432304,728,0.0004585271527,728,0.0006251558079,728,0.0008164597093,728,0.001058030641,
727,-0.004010216333,727,6.653203309E-5,727,0.00138890394,727,0.0003733325284,727,0.0006171196583,727,0.0006759942626,727,0.0009973139968,
726,-0.004097257275,726,3.080441047E-6,726,0.001470350078,726,0.0004133107723,726,0.0007070810534,726,0.000877618033,726,0.0009932145476,
725,-0.004199868068,725,0.0001496466721,725,0.001407679869,725,0.0005695539876,725,0.000640010112,725,0.0008421099046,725,0.001116523868,
724,-0.004192741122,724,1.677443106E-5,724,0.001430404256,724,0.0003115457948,724,0.0005635665148,724,0.0008131660288,724,0.001128851552,
723,-0.004404401872,723,7.380716852E-5,723,0.001598757342,723,0.0003970132966,723,0.0009187062387,723,0.0008973315707,723,0.001234572381,
722,-0.004492644686,722,0.0002444841084,722,0.001569425222,722,0.0005004309933,722,0.0008719375473,722,0.00107043446,722,0.001311861095,
721,-0.004337464925,721,-0.0001835962466,721,0.001438922947,721,0.0003868568456,721,0.0005618817522,721,0.0008675800054,721,0.001256249147,
720,-0.004624309018,720,0.0001428363757,720,0.001470661722,720,0.0005979890702,720,0.001077077701,720,0.001178814564,720,0.001375270542,
719,-0.004549413919,719,-0.0001396582229,719,0.001446740585,719,0.0004591749748,719,0.0009068774525,719,0.001054761,719,0.001368466998,
718,-0.004368371796,718,6.412428047E-5,718,0.001575270668,718,0.0004753193061,718,0.0009841079591,718,0.001206848305,718,0.001424171147,
717,-0.004283846356,717,-0.0002836693311,717,0.001301631331,717,0.000351855153,717,0.0007658381946,717,0.001093919738,717,0.001342214411,
716,-0.004555612803,716,4.755512782E-5,716,0.00155207119,716,0.0007080403739,716,0.001012492343,716,0.001296464587,716,0.001711583347,
715,-0.004512473941,715,-1.822333979E-5,715,0.001514845411,715,0.000558175263,715,0.001078946167,715,0.001259130891,715,0.001711557386,
714,-0.004576412495,714,-8.914212231E-5,714,0.001550512505,714,0.0005846655695,714,0.001169600175,714,0.001314743189,714,0.001743653906,
713,-0.00472971471,713,0.0001739367581,713,0.001539575635,713,0.0009105090285,713,0.001208561589,713,0.001524196938,713,0.002139377641,
712,-0.004715016577,712,1.131231511E-5,712,0.001545290812,712,0.0008556487737,712,0.001437728177,712,0.00149209064,712,0.002113988856,
711,-0.004631327,711,-0.0001438503823,711,0.001455830992,711,0.0006841611466,711,0.001302695833,711,0.001496324548,711,0.002151916502,
710,-0.004772832152,710,-4.540161535E-5,710,0.001505597844,710,0.0008797449409,710,0.001363143558,710,0.001756857149,710,0.002266395604,
709,-0.004752605222,709,-3.934649158E-6,709,0.001527470071,709,0.0008686434594,709,0.001409393968,709,0.001918914611,709,0.00231781695,
708,-0.004811644554,708,0.0001312099048,708,0.001747292583,708,0.0009010668728,708,0.001748670125,708,0.001941691735,708,0.002630040748,
707,-0.004872058518,707,-3.013022251E-5,707,0.0017542321,707,0.001088469988,707,0.001745083369,707,0.002308344003,707,0.002895606449,
706,-0.004787886515,706,9.111956388E-6,706,0.001499285805,706,0.001182993525,706,0.001817134209,706,0.002298689447,706,0.00303851231,
705,-0.004851426464,705,4.494036693E-5,705,0.001819031779,705,0.001205213019,705,0.002029067138,705,0.002453920199,705,0.003135103732,
704,-0.004878047854,704,8.67266499E-5,704,0.001750827301,704,0.001396720647,704,0.002207539044,704,0.002781378338,704,0.003327203915,
703,-0.004809289705,703,-0.0001268227206,703,0.001706931507,703,0.00140149903,703,0.002315761056,703,0.002837133594,703,0.003623109078,
702,-0.004707180895,702,-5.295946175E-5,702,0.001576959388,702,0.001483077416,702,0.002359770471,702,0.003097481327,702,0.003830728354,
701,-0.004928419832,701,5.493349818E-5,701,0.002039184095,701,0.001802889514,701,0.002738394076,701,0.003544233507,701,0.004245663527,
700,-0.004767916631,700,-0.0001166782677,700,0.001902404591,700,0.001765772118,700,0.002766685095,700,0.003387907986,700,0.004519438371,
699,-0.004875232466,699,3.921901225E-5,699,0.00208207313,699,0.001853995956,699,0.00321074971,699,0.003869119566,699,0.005004132167,
698,-0.004803964403,698,-0.0002077110985,698,0.002152957022,698,0.002109488705,698,0.003443349851,698,0.004266707227,698,0.00533705717,
697,-0.004775494803,697,-6.362304703E-5,697,0.002080096165,697,0.002334342804,697,0.003567226464,697,0.004609898198,697,0.00586503651,
696,-0.004709281027,696,-8.318953769E-5,696,0.002013202989,696,0.002453607973,696,0.003893409623,696,0.005099485628,696,0.006352075376,
695,-0.004832688253,695,-6.812652282E-5,695,0.002251979895,695,0.002739670454,695,0.00442782091,695,0.005574548617,695,0.006873059552,
694,-0.004824035335,694,-4.773110413E-5,694,0.00253507169,694,0.003280096687,694,0.004911600612,694,0.006294002291,694,0.007773888763,
693,-0.004774265923,693,-0.0001200425322,693,0.002706614556,693,0.003498251084,693,0.005303252488,693,0.006741164252,693,0.008274260908,
692,-0.004775750916,692,-5.823952233E-5,692,0.002976631979,692,0.003762624925,692,0.005807290785,692,0.00743292924,692,0.009017470293,
691,-0.004691868089,691,-0.0001697787666,691,0.002970506903,691,0.004283176735,691,0.006438924,691,0.008141860366,691,0.01001456752,
690,-0.004620006308,690,-0.0002329629933,690,0.003041145159,690,0.004646291025,690,0.007039852906,690,0.008957454003,690,0.01108759083,
689,-0.004771603271,689,9.318958405E-7,689,0.003523198888,689,0.005370890256,689,0.007889358327,689,0.0102636693,689,0.0123947775,
688,-0.004895300139,688,-8.168843488E-5,688,0.004014305305,688,0.006070921663,688,0.00883501675,688,0.01159094647,688,0.01377818361,
687,-0.004849685822,687,-9.2868926E-5,687,0.004324928392,687,0.00683087809,687,0.009896359406,687,0.01266451832,687,0.01536997128,
686,-0.004795208573,686,-5.787716873E-5,686,0.004684832878,686,0.007652415894,686,0.01111906022,686,0.01411991194,686,0.01700766943,
685,-0.004797768779,685,-7.661570999E-5,685,0.005238612182,685,0.008402743377,685,0.01241752505,685,0.01583517343,685,0.01909882016,
684,-0.004886751063,684,-7.371698302E-5,684,0.005739558488,684,0.009816098027,684,0.01400975138,684,0.01778920926,684,0.0213036593,
683,-0.004747075029,683,-3.069967352E-5,683,0.006318927277,683,0.01087596919,683,0.015593132,683,0.01971071027,683,0.02381060272,
682,-0.004891409539,682,-5.59133332E-6,682,0.007113524247,682,0.01213989872,682,0.01773279533,682,0.02233248018,682,0.02666367777,
681,-0.004816252738,681,-0.0001708138007,681,0.007875783369,681,0.01375023555,681,0.0198418349,681,0.02505002357,681,0.02994352952,
680,-0.004867860582,680,-3.665298573E-5,680,0.008886586875,680,0.01565541327,680,0.0222855825,680,0.02821878903,680,0.03363198042,
679,-0.004922584165,679,4.201495904E-5,679,0.01001091208,679,0.01760898903,679,0.02521459199,679,0.03172521666,679,0.03770197928,
678,-0.004719830584,678,-8.00320413E-5,678,0.01081779227,678,0.01943853498,678,0.02794302441,678,0.03534582257,678,0.04202840477,
677,-0.00493200263,677,-3.846484469E-5,677,0.01256008167,677,0.02223501168,677,0.03166857734,677,0.0398372747,677,0.0473902896,
676,-0.004872928839,676,7.895291674E-6,676,0.01418281253,676,0.0255300533,676,0.03588182107,676,0.04505457729,676,0.05347716808,
675,-0.004949150141,675,-0.0002022258705,675,0.01608516648,675,0.02900063805,675,0.04074845836,675,0.05113414302,675,0.06043091044,
674,-0.005078015849,674,2.982166006E-5,674,0.01830147579,674,0.03318887576,674,0.04656448588,674,0.0580070354,674,0.06860301644,
673,-0.005059286952,673,0.0001221212879,673,0.02058476768,673,0.03769057244,673,0.05296557397,673,0.06593585759,673,0.07783405483,
672,-0.005165916868,672,0.0001844766957,672,0.02387309074,672,0.04317387193,672,0.06069273502,672,0.0754038915,672,0.08893549442,
671,-0.00521840388,671,0.0002347974223,671,0.02733958513,671,0.04967408255,671,0.0693949163,671,0.08630568534,671,0.1016611606,
670,-0.005038408097,670,3.655252658E-5,670,0.03106130473,670,0.05676376075,670,0.07956900448,670,0.09893105924,670,0.1162771955,
669,-0.005035184324,669,0.0001465392997,669,0.03620859236,669,0.06582484394,669,0.0918648392,669,0.1143280566,669,0.1341490597,
668,-0.005037998781,668,0.0002198016009,668,0.04183356836,668,0.07620821148,668,0.1062073335,668,0.1321366876,668,0.1549313366,
667,-0.004933180287,667,0.0001413603895,667,0.04831250012,667,0.08822464943,667,0.1231059507,667,0.1526210606,667,0.1791571826,
666,-0.005187198985,666,0.0001856938616,666,0.05622783303,666,0.1029152051,666,0.143175438,666,0.1773195565,666,0.2079751641,
665,-0.005310726352,665,0.0002698673925,665,0.0659244433,665,0.1199860349,665,0.1668156832,665,0.2066693753,665,0.2419665009,
664,-0.005190114956,664,0.0003621403303,664,0.0765350461,664,0.1400677413,664,0.1940722913,664,0.2407461703,664,0.2817560136,
663,-0.00502172485,663,8.123776934E-5,663,0.08907937258,663,0.162840724,663,0.2258431315,663,0.2799353004,663,0.327458173,
662,-0.005305970088,662,0.0002581339213,662,0.1043023095,662,0.1904732436,662,0.2640098333,662,0.3271497488,662,0.3821544945,
661,-0.005301980767,661,0.0003496530699,661,0.1212356165,661,0.2216332853,661,0.3068578243,661,0.3798173368,661,0.4437077343,
660,-0.005139978137,660,0.0001634488726,660,0.1401943415,660,0.2561905682,660,0.3543922007,660,0.4386049509,660,0.5122776628,
659,-0.005325199571,659,0.0001095114494,659,0.1614806056,659,0.2945298851,659,0.4073228836,659,0.5037246346,659,0.5877415538,
658,-0.005316965748,658,0.0001121783862,658,0.1839452535,658,0.3359210789,658,0.4639227986,658,0.5739219189,658,0.6695042849,
657,-0.005338956136,657,0.0001955089538,657,0.2077367902,657,0.37916556,657,0.5236030221,657,0.6474044919,657,0.7549764514,
656,-0.005481100176,656,0.000120515906,656,0.2318592072,656,0.4229744971,656,0.5841493011,656,0.7219111919,656,0.8419167399,
655,-0.005437081214,655,0.0002381126251,655,0.2553538382,655,0.4659786224,655,0.6432608366,655,0.7954663038,655,0.9269619584,
654,-0.005446437746,654,7.095923502E-5,654,0.2774643898,654,0.5063188076,654,0.6992420554,654,0.864510417,654,1.007922053,
653,-0.00554581685,653,0.0001679547422,653,0.2973668873,653,0.5427098274,653,0.749579072,653,0.9268157482,653,1.080421567,
652,-0.005443472415,652,-4.659224214E-5,652,0.3140591383,652,0.5736618042,652,0.7922682762,652,0.979991436,652,1.142173886,
651,-0.005476601422,651,-3.023375939E-5,651,0.3275867999,651,0.5985917449,651,0.826693058,651,1.022806287,651,1.192332745,
650,-0.005593964364,650,0.0001332555257,650,0.337960273,650,0.6173475385,650,0.8528363109,650,1.055056453,650,1.22971046,
649,-0.005549496971,649,-0.0001329299848,649,0.3450015187,649,0.6302062869,649,0.8709437251,649,1.077345371,649,1.255842447,
648,-0.005607252475,648,8.801318472E-6,648,0.3493435681,648,0.6383668184,648,0.8820957541,648,1.091602445,648,1.272114992,
647,-0.005422356538,647,-0.0003503029293,647,0.3514184654,647,0.6421991587,647,0.887822628,647,1.098436832,647,1.280281663,
646,-0.005548014771,646,-0.0001625334698,646,0.3522863388,646,0.6436741352,646,0.8896794915,646,1.100754499,646,1.283208132,
645,-0.005455435719,645,-0.0003160044434,645,0.3517543077,645,0.6429571509,645,0.888859272,645,1.099879384,645,1.281986475,
644,-0.005388712045,644,-0.0003359734255,644,0.350800693,644,0.6413904428,644,0.8865215778,644,1.096858978,644,1.278756261,
643,-0.005569482222,643,-0.0001384678471,643,0.3498150408,643,0.6391713023,643,0.8835934997,643,1.093192339,643,1.27474606,
642,-0.005661474541,642,-0.0003708910663,642,0.3483922482,642,0.6369413733,642,0.8803668618,642,1.089132786,642,1.269753337,
641,-0.005468574818,641,-0.000437149225,641,0.3467106819,641,0.6342348456,641,0.8767658472,641,1.08494091,641,1.264981747,
640,-0.005637558643,640,-0.0003458541178,640,0.3459155262,640,0.6322755218,640,0.8741005659,640,1.08122611,640,1.260928154,
639,-0.005810256582,639,-0.0003331798944,639,0.3449650705,639,0.6306442022,639,0.871783793,639,1.078469634,639,1.257164598,
638,-0.005740827881,638,-0.0003907023347,638,0.3439771533,638,0.6291042566,638,0.8696084619,638,1.076069355,638,1.254695892,
637,-0.005783743225,637,-0.0002205959609,637,0.3434721231,637,0.6278607845,637,0.867959559,637,1.074066281,637,1.252039552,
636,-0.005941726733,636,-0.0003139868204,636,0.343185544,636,0.6273423433,636,0.867393434,636,1.073119998,636,1.251170039,
635,-0.005934934597,635,-0.0002856353531,635,0.3428789377,635,0.6270346642,635,0.8669140339,635,1.072467208,635,1.250444651,
634,-0.005838096142,634,-0.0003764258872,634,0.3428232372,634,0.6268765926,634,0.8666713238,634,1.072284937,634,1.250205755,
633,-0.006052224431,633,-0.0003408361808,633,0.3431494236,633,0.6274095774,633,0.8673704267,633,1.072908521,633,1.250889301,
632,-0.006091433577,632,-0.0001674499363,632,0.3432142138,632,0.6276256442,632,0.8675492406,632,1.073759437,632,1.251935959,
631,-0.006007599644,631,-0.0002747185354,631,0.3433664441,631,0.627834022,631,0.8680514693,631,1.073997378,631,1.252241254,
630,-0.006109811366,630,-0.0002916886588,630,0.3435020149,630,0.628097713,630,0.8685553074,630,1.074541688,630,1.252864361,
629,-0.006176577881,629,-0.0002242181363,629,0.3436456919,629,0.6281650662,629,0.8684732318,629,1.074522257,629,1.253100038,
628,-0.006174026057,628,-0.0002122130827,628,0.3434031904,628,0.6278130412,628,0.8680957556,628,1.074102402,628,1.252420664,
627,-0.006119152997,627,-0.0002985179017,627,0.3430459499,627,0.6271942258,627,0.8673917651,627,1.073338747,627,1.251369476,
626,-0.006288955454,626,-0.0001247524488,626,0.3428944647,626,0.6268219352,626,0.8667934537,626,1.072639942,626,1.250142455,
625,-0.006208477076,625,-0.000218991845,625,0.3423944116,625,0.6262616515,625,0.8656835556,625,1.071249962,625,1.248946071,
624,-0.006136815064,624,-0.0003690288577,624,0.3421627581,624,0.6257707477,624,0.8650206923,624,1.070411086,624,1.247912884,
623,-0.006227564532,623,-0.0002168185165,623,0.3420322537,623,0.6252497435,623,0.8645573258,623,1.06986618,623,1.247313261,
622,-0.006145288702,622,-0.0002512283099,622,0.3417951465,622,0.6252135038,622,0.8640276194,622,1.069244623,622,1.247067451,
621,-0.006227360573,621,-0.0001876844763,621,0.3417142332,621,0.6248550415,621,0.8640050888,621,1.069313645,621,1.246726751,
620,-0.006278035231,620,-0.0002352914744,620,0.3417559266,620,0.6248186827,620,0.8643021584,620,1.069418907,620,1.246872306,
619,-0.006155140232,619,-0.0002600761072,619,0.3416498601,619,0.6249445677,619,0.8639788032,619,1.069079399,619,1.246875167,
618,-0.006147534586,618,-0.0001354142732,618,0.3418661952,618,0.6249648333,618,0.8642129898,618,1.069378257,618,1.247035146,
617,-0.006299875211,617,-0.0001213882279,617,0.3417919874,617,0.6250137687,617,0.8643265963,617,1.069446445,617,1.247172475,
616,-0.006281096954,616,-0.0002522114082,616,0.3417767286,616,0.624950707,616,0.8641886115,616,1.069278598,616,1.247082591,
615,-0.00630834559,615,-8.665757923E-5,615,0.3417198956,615,0.625028193,615,0.8639270067,615,1.069318533,615,1.246921182,
614,-0.00626374688,614,-0.0001362423645,614,0.3415353,614,0.6246848702,614,0.8639755845,614,1.069227099,614,1.246768713,
613,-0.006352326833,613,-0.0001683814626,613,0.3417632282,613,0.6248695254,613,0.8642017245,613,1.069507957,613,1.247128248,
612,-0.006381917745,612,8.408576832E-5,612,0.3417852521,612,0.6252171397,612,0.8644636869,612,1.070169926,612,1.247874022,
611,-0.006392886396,611,-4.343448381E-5,611,0.3421911001,611,0.6256991029,611,0.8653700948,611,1.071009994,611,1.248815298,
610,-0.006493221968,610,4.703735249E-5,610,0.342681706,610,0.6266359687,610,0.8666703701,610,1.072566271,610,1.250846982,
609,-0.006442776415,609,-9.16266581E-5,609,0.3429937065,609,0.627520144,609,0.8677925467,609,1.074075818,609,1.252661347,
608,-0.006457671057,608,4.377537698E-5,608,0.3436089754,608,0.6286628842,608,0.86946702,608,1.076226354,608,1.255325913,
607,-0.006639781874,607,-9.111765394E-6,607,0.3444377184,607,0.6300960183,607,0.8714794517,607,1.078680396,607,1.258069873,
606,-0.006734759081,606,0.0001609111059,606,0.3452113569,606,0.6313521862,606,0.8729106188,606,1.080596447,606,1.260469913,
605,-0.006654363591,605,0.0001626720041,605,0.3454594016,605,0.6321543455,605,0.874360919,605,1.082393527,605,1.262617111,
604,-0.006676184479,604,8.771051944E-5,604,0.3460622728,604,0.6328810453,604,0.8757371306,604,1.083732367,604,1.264442086,
603,-0.006839296781,603,0.0001382789633,603,0.3463358581,603,0.6334019899,603,0.8761914968,603,1.084835649,603,1.265341043,
602,-0.006739244796,602,-0.0001107778153,602,0.3460578322,602,0.6333435774,602,0.8761816025,602,1.08462739,602,1.265680432,
601,-0.00685906969,601,6.218254566E-5,601,0.3458870947,601,0.6329357028,601,0.8757738471,601,1.08436954,601,1.265361071,
600,-0.006937083788,600,-5.725598749E-5,600,0.3455234766,600,0.632222116,600,0.8746656775,600,1.08313179,600,1.263832927,
599,-0.006991190836,599,8.732215065E-5,599,0.344781816,599,0.6312003732,599,0.8732709289,599,1.081347585,599,1.261829734,
598,-0.006945184898,598,-3.675791959E-6,598,0.3438427746,598,0.6295304894,598,0.8712849617,598,1.07879889,598,1.259103417,
597,-0.007149754558,597,9.762695845E-5,597,0.3431848288,597,0.628046453,597,0.8690220118,597,1.07634151,597,1.255913973,
596,-0.007197266445,596,0.0001125926719,596,0.3419920802,596,0.6261941195,596,0.86633569,596,1.073092937,596,1.252671599,
595,-0.007040248252,595,-0.0001950846054,595,0.3406327367,595,0.6236274838,595,0.8633781075,595,1.069205046,595,1.248027325,
594,-0.007391995285,594,0.0001384602219,594,0.3395182788,594,0.621417582,594,0.8603147268,594,1.065618992,594,1.243528605,
593,-0.007277357858,593,-3.525525608E-5,593,0.3376989067,593,0.6186392903,593,0.8562849164,593,1.060708523,593,1.238288164,
592,-0.007287336048,592,5.17719684E-7,592,0.3361628056,592,0.6155643463,592,0.8522595763,592,1.055516481,592,1.23243463,
591,-0.007499784697,591,0.0001091748491,591,0.3344684243,591,0.612364471,591,0.8478645086,591,1.050005078,591,1.225947022,
590,-0.007420344744,590,6.580711488E-5,590,0.3321448565,590,0.6086445451,590,0.8425519466,590,1.044026732,590,1.218548775,
589,-0.007424772717,589,2.265081275E-5,589,0.3300921023,589,0.6046985388,589,0.8372418284,589,1.037135005,589,1.211190939,
588,-0.007577378303,588,0.0002261987102,588,0.3278064728,588,0.6004906297,588,0.8316482902,588,1.030390501,588,1.203102946,
587,-0.00751820486,587,-4.612634439E-5,587,0.3253545463,587,0.596080482,587,0.825442493,587,1.023042202,587,1.194479346,
586,-0.007610242814,586,0.0001455812017,586,0.3229737878,586,0.591912806,586,0.8194963336,586,1.015276551,586,1.186048388,
585,-0.007571476512,585,4.970390364E-5,585,0.3204829693,585,0.5871661901,585,0.813316226,585,1.007760048,585,1.176907897,
584,-0.007691021077,584,0.0001897079201,584,0.3181985915,584,0.5826575756,584,0.8069424629,584,1.000078917,584,1.167957902,
583,-0.007679831237,583,5.151613368E-5,583,0.3152880967,583,0.5780194998,583,0.8006030917,583,0.9919202924,583,1.158634901,
582,-0.00753713306,582,-4.203677963E-5,582,0.3126242161,582,0.5730879307,582,0.7940374613,582,0.9838846922,582,1.149408817,
581,-0.007721487433,581,2.38157445E-5,581,0.3102938831,581,0.5685652494,581,0.7875728011,581,0.9760261774,581,1.139897227,
580,-0.007701956667,580,-4.369331509E-5,580,0.3075011075,580,0.5636380315,580,0.7808109522,580,0.967500031,580,1.130351424,
579,-0.007607546635,579,-0.0001324124314,579,0.3045425415,579,0.5586516857,579,0.7738505602,579,0.9591311216,579,1.120328426,
578,-0.00781292282,578,0.0001294750255,578,0.3021484315,578,0.5538126826,578,0.767303884,578,0.9507638216,578,1.110671043,
577,-0.00791750662,577,5.268114182E-5,577,0.2995001376,577,0.548799634,577,0.7603362799,577,0.94238168,577,1.10075748,
576,-0.007617110852,576,-1.232154591E-5,576,0.2962578833,576,0.5434989929,576,0.7527216673,576,0.9329950213,576,1.09014535,
575,-0.007563692052,575,4.517336492E-5,575,0.2934830487,575,0.5381665826,575,0.7458087206,575,0.9245770574,575,1.079961061,
574,-0.007632422727,574,0.0001803591003,574,0.290872097,574,0.533215344,574,0.7386451364,574,0.9157110453,574,1.069517612,
573,-0.007509707008,573,-1.501383622E-6,573,0.2878724635,573,0.5278111696,573,0.7312728167,573,0.9063180089,573,1.058829665,
572,-0.007767817937,572,0.0002579007996,572,0.2851237357,572,0.5224164128,572,0.7239686251,572,0.8973294497,572,1.048189759,
571,-0.007889138535,571,9.532259719E-5,571,0.282289356,571,0.5170744658,571,0.7165064216,571,0.8880047798,571,1.037179708,
570,-0.00795370061,570,5.571017755E-5,570,0.2790712416,570,0.5114704967,570,0.7086854577,570,0.8783358932,570,1.026216507,
569,-0.007893460803,569,0.000103064267,569,0.2759400904,569,0.5058448315,569,0.7007850409,569,0.8685330153,569,1.014725327,
568,-0.00799746532,568,0.0001208784088,568,0.2722954154,568,0.4995770454,568,0.6922312975,568,0.8578277826,568,1.002313018,
567,-0.007571273018,567,2.756943104E-5,567,0.2693638504,567,0.4941228032,567,0.6846330762,567,0.8485752344,567,0.9916297793,
566,-0.007934638299,566,0.0001671778737,566,0.2666652799,566,0.488663435,566,0.6769456863,566,0.8389052749,566,0.9799619913,
565,-0.007894935086,565,0.00022650951,565,0.2632230222,565,0.4828946888,565,0.668784976,565,0.8288438916,565,0.9683826566,
564,-0.0076599936,564,1.144174894E-5,564,0.2597393394,564,0.4764687419,564,0.6603727937,564,0.8185393214,564,0.9563959241,
563,-0.007971898653,563,8.118598635E-5,563,0.2569773793,563,0.4708941877,563,0.6525203586,563,0.8086539507,563,0.9445685744,
562,-0.007931079715,562,7.864869258E-5,562,0.2535768151,562,0.4647318721,562,0.643969059,562,0.7982112169,562,0.9325644374,
561,-0.007993347943,561,7.391072722E-5,561,0.2503565848,561,0.4589137435,561,0.6358183026,561,0.7879644632,561,0.9206496477,
560,-0.008035075851,560,-2.060474253E-5,560,0.2470546216,560,0.4527008832,560,0.6273790598,560,0.7774233222,560,0.9083271027,
559,-0.00815952383,559,0.000263987662,559,0.2438454479,559,0.4467518926,559,0.6186495423,559,0.7671599984,559,0.8960197568,
558,-0.008015457541,558,8.289478137E-5,558,0.2402917892,558,0.4404761791,558,0.6100689173,558,0.7561985254,558,0.883787632,
557,-0.008185028099,557,0.0002174965921,557,0.2370693535,557,0.4342398345,557,0.6016993523,557,0.7458028793,557,0.8714015484,
556,-0.008139656857,556,-2.324497837E-5,556,0.233528167,556,0.4280598462,556,0.5930207372,556,0.7351815701,556,0.8589350581,
555,-0.008199914359,555,6.945760833E-5,555,0.2301979661,555,0.4219383299,555,0.5845448375,555,0.7242289186,555,0.8464937806,
554,-0.008312277496,554,0.0002887503942,554,0.2268785685,554,0.4156171381,554,0.5759124756,554,0.7136175036,554,0.8338931203,
553,-0.008386983536,553,0.0001221471757,553,0.2235150933,553,0.4093919396,553,0.5673491359,553,0.7029304504,553,0.8214148283,
552,-0.008430551738,552,9.400212002E-5,552,0.2200358063,552,0.4032933414,552,0.5584580302,552,0.6919616461,552,0.8085168004,
551,-0.008394905366,551,8.765873645E-5,551,0.2164958566,551,0.396769464,551,0.5497835279,551,0.6810019016,551,0.7958923578,
550,-0.008534681983,550,0.0001630863262,550,0.2132693529,550,0.3904671967,550,0.5410715938,550,0.6703824401,550,0.783223629,
549,-0.008616202511,549,5.25258074E-5,549,0.2096040994,549,0.3841955066,549,0.5320932865,549,0.659431994,549,0.7706438899,
548,-0.008466348052,548,-1.620431431E-5,548,0.2058027238,548,0.3776518703,548,0.5231066942,548,0.648147285,548,0.7573723197,
547,-0.008785285056,547,0.0002915738733,547,0.2028817981,547,0.3715453446,547,0.5145733356,547,0.6374526024,547,0.7450757623,
546,-0.008970834315,546,0.0002574863902,546,0.1994155496,546,0.3651001453,546,0.5057748556,546,0.6265288591,546,0.7324109077,
545,-0.008767273277,545,0.0001070775616,545,0.1957264245,545,0.358622551,545,0.4966015816,545,0.6154976487,545,0.7190814018,
544,-0.008849815466,544,0.000213404579,544,0.1922812611,544,0.3521000445,544,0.487829864,544,0.6042093635,544,0.7059938908,
543,-0.009060638957,543,0.0001413345017,543,0.1890817136,543,0.3461000323,543,0.4792716503,543,0.59375,543,0.6935802698,
542,-0.009003797546,542,5.161968875E-5,542,0.1853552312,542,0.3395417333,542,0.4703046679,542,0.582582593,542,0.6808495522,
541,-0.009066621773,541,0.0001828710956,541,0.181892693,541,0.3331896961,541,0.4615677595,541,0.5718927979,541,0.6682052016,
540,-0.009270803072,540,0.0001350680977,540,0.1788121462,540,0.3270765543,540,0.4531224668,540,0.5612344742,540,0.6555882096,
539,-0.009369564243,539,0.0002534716914,539,0.1752949357,539,0.3209382594,539,0.4442308545,539,0.5504540205,539,0.6430849433,
538,-0.00917181652,538,0.0001617397647,538,0.1716618538,538,0.3143359721,538,0.4354832172,538,0.5393811464,538,0.630184114,
537,-0.009449205361,537,0.0002346679248,537,0.1684092879,537,0.3086000681,537,0.42726475,537,0.5290757418,537,0.6180193424,
536,-0.009440897033,536,0.0002180922602,536,0.1651824117,536,0.3021451533,536,0.4185851812,536,0.5185405612,536,0.6055445671,
535,-0.009354262613,535,4.250683924E-5,535,0.1616944373,535,0.2959979475,535,0.4100354612,535,0.5077255964,535,0.5932409763,
534,-0.009579274803,534,0.0001296562841,534,0.1584905684,534,0.2901273668,534,0.4017392099,534,0.4975599647,534,0.5810445547,
533,-0.009488513693,533,0.0001310027583,533,0.1551935077,533,0.2840044796,533,0.3932340145,533,0.4869877398,533,0.5689142942,
532,-0.009773445316,532,0.0003972983104,532,0.1519456357,532,0.278268218,532,0.3851850629,532,0.4768057466,532,0.5573093891,
531,-0.009590263478,531,7.313401875E-5,531,0.148731932,531,0.2720735073,531,0.3768303096,531,0.4664771855,531,0.5451825857,
530,-0.009795261547,530,0.0003748870222,530,0.145753026,530,0.2662674785,530,0.3687974811,530,0.4568027556,530,0.5333492756,
529,-0.009719025344,529,0.0001170721298,529,0.1422852576,529,0.2605183125,529,0.3608302474,529,0.4464764297,529,0.5217521191,
528,-0.009714266285,528,1.656733548E-5,528,0.1391878575,528,0.2548364401,528,0.3527263701,528,0.4364748001,528,0.5101227164,
527,-0.009833323769,527,0.0001085275362,527,0.1362212449,527,0.2491371036,527,0.344917655,527,0.4270198941,527,0.498675257,
526,-0.009811003692,526,1.659322334E-5,526,0.1331330836,526,0.2435422391,526,0.33701092,526,0.4171698093,526,0.4877199829,
525,-0.009869409725,525,0.0001655205269,525,0.1300224513,525,0.2379688919,525,0.3292814195,525,0.4076192677,525,0.476202786,
524,-0.01000871323,524,0.0002329326235,524,0.1271607727,524,0.2325101495,524,0.3219186664,524,0.3983187377,524,0.4653038681,
523,-0.01004635263,523,0.000133410882,523,0.124200955,523,0.2272828817,523,0.3143696189,523,0.3889605403,523,0.4543987811,
522,-0.009796020575,522,2.870848766E-5,522,0.1211341619,522,0.221531406,522,0.3066455424,522,0.3795479536,522,0.4433878362,
521,-0.01011378132,521,0.000235522617,521,0.118422702,521,0.2164081931,521,0.2996619046,521,0.3706451058,521,0.4329807758,
520,-0.01002009585,520,-0.0001124858463,520,0.1155027375,520,0.2111127973,520,0.292236805,520,0.3613980412,520,0.4224189222,
519,-0.0101003265,519,0.0003123488568,519,0.1127211824,519,0.2061087638,519,0.2850235105,519,0.3527690172,519,0.4122276008,
518,-0.0101743713,518,0.0002311714343,518,0.1100012511,518,0.2009456158,518,0.2782533765,518,0.3442560434,518,0.402061224,
517,-0.01002728008,517,-4.017316314E-5,517,0.1071462557,517,0.1958561987,517,0.2712065876,517,0.3354179263,517,0.3919254541,
516,-0.01020471472,516,9.351018525E-5,516,0.1045415476,516,0.1912964284,516,0.264308542,516,0.3271236718,516,0.3822880685,
515,-0.01005591359,515,6.394305092E-5,515,0.1019023582,515,0.1861201525,515,0.2577226758,515,0.318754673,515,0.3722271919,
514,-0.01021442376,514,-7.196239494E-6,514,0.09942865372,514,0.1816378236,514,0.2512749434,514,0.3107862771,514,0.3629072309,
513,-0.01025371347,513,0.0001405317744,513,0.09697285295,513,0.1769234091,513,0.2445897609,513,0.3025416434,513,0.3536157608,
512,-0.01011044253,512,4.258450645E-5,512,0.09408196807,512,0.1721654534,512,0.2382398695,512,0.294582665,512,0.3440713584,
511,-0.01022069436,511,-3.779186954E-5,511,0.09181894362,511,0.1677383631,511,0.2320917696,511,0.2868928313,511,0.3352099955,
510,-0.01043034811,510,0.0002771200379,510,0.08968385309,510,0.163618356,510,0.225971818,510,0.2795464694,510,0.3264112473,
509,-0.01036054175,509,0.0002447431325,509,0.08713363111,509,0.1589862853,509,0.21993348,509,0.2717641294,509,0.3176785409,
508,-0.01019475237,508,2.461825352E-5,508,0.08470849693,508,0.1548324078,508,0.2140480578,508,0.2644684017,508,0.3088475764,
507,-0.01050681341,507,0.0001918833004,507,0.08261910826,507,0.1507716328,507,0.208423987,507,0.2575006187,507,0.3007231951,
506,-0.0102094179,506,-9.659569332E-5,506,0.08002046496,506,0.1463883817,506,0.2023081034,506,0.249942407,506,0.2920247316,
505,-0.01042104792,505,8.475893264E-5,505,0.07802191377,505,0.1423700005,505,0.1969474554,505,0.2434229404,505,0.2841864824,
504,-0.01051126048,504,-3.385752643E-5,504,0.07610740513,504,0.1385985613,504,0.1916499883,504,0.23656407,504,0.2762414515,
503,-0.01054769382,503,0.0002414019546,503,0.07389750332,503,0.1347912401,503,0.1861898601,503,0.229921639,503,0.2686830759,
502,-0.01040785573,502,8.118598635E-5,502,0.07160207629,502,0.1307749897,502,0.1809063405,502,0.2233557999,502,0.2609714866,
501,-0.01065455098,501,0.0002578748972,501,0.0699582994,501,0.1272074282,501,0.1759426743,501,0.2172159106,501,0.25373438,
500,-0.01065758243,500,0.0002438625088,500,0.06782711297,500,0.1237899214,500,0.1710492969,500,0.2109791785,500,0.2463683486,
499,-0.01043494791,499,-3.862014637E-5,499,0.06574138254,499,0.1199132279,499,0.1659301817,499,0.2046626806,499,0.2388662994,
498,-0.01071789488,498,0.0001968815195,498,0.06405811757,498,0.1166190803,498,0.1613684446,498,0.1990547329,498,0.2321373075,
497,-0.0105876103,497,7.315990661E-5,497,0.06194296479,497,0.1132761389,497,0.1564082503,497,0.1930605769,497,0.2254733145,
496,-0.01068480965,496,0.0001108319702,496,0.06025559455,496,0.1099552661,496,0.151887387,496,0.1874811351,496,0.2188890725,
495,-0.01086980198,495,0.0001877656323,495,0.05868275091,495,0.1067969501,495,0.1476411223,495,0.182017073,495,0.2125451565,
494,-0.01073370408,494,7.396251021E-5,494,0.05684589967,494,0.1035179421,494,0.1429414898,494,0.1765673906,494,0.2060690224,
493,-0.01065480337,493,1.374566637E-5,493,0.05496574938,493,0.1003798693,493,0.1386109889,493,0.171065256,493,0.1999524385,
492,-0.01080451068,492,6.746407598E-5,492,0.05347956717,492,0.0973560214,492,0.1347848475,492,0.1661242098,492,0.1939292997,
491,-0.01082920469,491,0.0001024687517,491,0.05183362588,491,0.09457580745,491,0.1307210177,491,0.1610767096,491,0.1880219877,
490,-0.01104724593,490,0.00025779719,490,0.05048303306,490,0.09196105599,490,0.1267310828,490,0.1562537998,490,0.1825225353,
489,-0.01084960531,489,0.000114586408,489,0.04877249897,489,0.08877445757,489,0.1227671653,489,0.1512149274,489,0.1765100956,
488,-0.01105062757,488,0.0002069817419,488,0.04744494706,488,0.08624730259,488,0.1191185042,488,0.1468747854,488,0.171260789,
487,-0.01115347631,487,0.0002336319158,487,0.04605848715,487,0.08368507773,487,0.1152889431,487,0.1422492713,487,0.1661772281,
486,-0.01105037518,486,-1.982819958E-5,486,0.04440204427,486,0.08099702001,486,0.1117143258,486,0.1377435178,486,0.1606394202,
485,-0.01119419467,485,0.0001936961198,485,0.04332855344,485,0.07855150104,485,0.108312279,485,0.1334027946,485,0.1558319032,
484,-0.01121629309,484,7.023430953E-5,484,0.04183071852,484,0.07598928362,484,0.1049024239,484,0.129164353,484,0.1509667337,
483,-0.01120045129,483,2.125289939E-5,483,0.0402003713,483,0.07354480028,483,0.1014662609,483,0.1250371784,483,0.146108672,
482,-0.01143837627,482,0.0003107427619,482,0.03934245184,482,0.07130296528,482,0.09850177169,482,0.1212888733,482,0.1417322159,
481,-0.01153074764,481,0.000135430615,481,0.03812735528,481,0.06915003806,481,0.09538715333,481,0.1174969971,481,0.1371355504,
480,-0.01145632751,480,0.0001091748491,480,0.03675689921,480,0.06693099439,480,0.09222976118,480,0.1135597825,480,0.1326405704,
479,-0.01149938814,479,9.363963909E-5,479,0.03568185493,479,0.06472544372,479,0.08928979933,479,0.1099642366,479,0.1282477677,
478,-0.01156018954,478,1.185593555E-5,478,0.03449305892,478,0.0626866743,478,0.08647591621,478,0.1063412353,478,0.1241677105,
477,-0.01165611297,477,4.838356836E-5,477,0.03340008482,477,0.06075337529,477,0.08357457817,477,0.1029392481,477,0.1202659383,
476,-0.0115923509,476,9.542616317E-5,476,0.03218859807,476,0.05867661536,476,0.08083485067,476,0.09943626821,476,0.1161953285,
475,-0.01170499902,475,1.069103655E-5,475,0.03126065806,475,0.05668986961,475,0.07840227336,475,0.09641379863,475,0.1126058623,
474,-0.01179685909,474,0.000165287478,474,0.0302271992,474,0.05508375168,474,0.07570938766,474,0.0933156386,474,0.1089239269,
473,-0.01156286057,473,-4.04837665E-5,473,0.02905335836,473,0.05292045325,473,0.07321346551,473,0.08980769664,473,0.1050065532,
472,-0.01188542694,472,7.688812912E-5,472,0.02859792486,472,0.05159119889,472,0.07086760551,472,0.08717102557,472,0.1016876251,
471,-0.01182764303,471,6.816310633E-5,471,0.02749123611,471,0.04963217676,471,0.06859988719,471,0.08413411677,471,0.09838405997,
470,-0.0116096409,470,-7.196239494E-6,470,0.02630005963,470,0.04792657495,470,0.06601191312,470,0.08097777516,470,0.09492269903,
469,-0.0118505666,469,-2.495335684E-5,469,0.02558831312,469,0.04647943005,469,0.06407812983,469,0.0787024051,469,0.09196342528,
468,-0.01181081589,468,8.154156603E-6,468,0.02457118034,468,0.04456315562,468,0.06156081706,468,0.07574510574,468,0.0884867385,
467,-0.01200655941,467,0.0001092007442,467,0.02366474271,467,0.04324221238,467,0.05950757116,467,0.07327159494,467,0.0857199505,
466,-0.0121223731,466,0.0001545926352,466,0.02322437055,466,0.04179939255,466,0.05769313499,466,0.07084015012,466,0.08293191344,
465,-0.01228440925,465,6.402072177E-5,465,0.02252661251,465,0.04065719992,465,0.05586133897,465,0.0688233152,465,0.08025030792,
464,-0.01214341726,464,-6.833358202E-5,464,0.02153758891,464,0.03918048739,464,0.05391617864,464,0.06606776267,464,0.07761728019,
463,-0.01220302097,463,-7.299781828E-6,463,0.02088311128,463,0.03788680583,463,0.0521408096,463,0.06404896826,463,0.07477045804,
462,-0.01240165811,462,0.0001115051782,462,0.02042910643,462,0.03663377464,462,0.05062297359,462,0.06217356026,462,0.07258174568,
461,-0.01226090547,461,-0.0001742293825,461,0.01950494573,461,0.03542128205,461,0.04871848598,461,0.05975609645,461,0.07013303787,
460,-0.01221751794,460,-2.510866398E-5,460,0.0188547913,460,0.0341411978,460,0.04698467627,460,0.05770022795,460,0.06765607744,
459,-0.01238319185,459,-7.351552995E-6,459,0.01844127849,459,0.03309427574,459,0.04552390054,459,0.05594139174,459,0.0655111447,
458,-0.01225894224,458,-0.0001084486648,458,0.01749529876,458,0.03187130019,458,0.04381388053,458,0.05386753008,458,0.0631409362,
457,-0.012311887,457,2.837194734E-5,457,0.01696389914,457,0.0309771467,457,0.04242196679,457,0.05216424912,457,0.06118347868,
456,-0.01233871002,456,-0.0001468521514,456,0.01652289927,456,0.02981530875,456,0.04109666497,456,0.05043531954,456,0.05904270709,
455,-0.01238158159,455,-0.0001022892975,455,0.01586666517,455,0.02880707569,455,0.03984343261,455,0.04859400913,455,0.05714734644,
454,-0.0123919975,454,2.938156831E-5,454,0.01535211038,454,0.02807508595,454,0.03843885288,454,0.04723133147,454,0.05532284826,
453,-0.01240160689,453,-2.267551645E-5,453,0.01484566461,453,0.02686925605,453,0.03720140457,453,0.04558010399,453,0.05336870626,
452,-0.01229487732,452,-0.0003602867364,452,0.01425631437,452,0.02594894543,452,0.03585612401,452,0.04395469651,452,0.0516342856,
451,-0.01249110792,451,-1.496183177E-5,451,0.01402472239,451,0.02543296106,451,0.03470933065,451,0.04275943711,451,0.05015423894,
450,-0.01231832895,450,-0.0001610843901,450,0.01325424667,450,0.02416866645,450,0.03354964405,450,0.04107927904,450,0.04826250672,
449,-0.01247727405,449,-0.0002100914717,449,0.01313766185,449,0.02375722863,449,0.03264323995,449,0.04010173306,449,0.04701083899,
448,-0.01258008648,448,-0.0002173877147,448,0.01272958051,448,0.02312246896,448,0.031585861,448,0.03878942877,448,0.04562119022,
447,-0.01255956572,447,-7.7081575E-5,447,0.01219942421,447,0.02223460376,447,0.03065109439,447,0.03761895001,447,0.04405670613,
446,-0.01257032901,446,-0.0002186813654,446,0.01196775585,446,0.02160500176,446,0.02978575416,446,0.03651178628,446,0.04287753627,
445,-0.01273742691,445,-7.956617628E-5,445,0.01173421647,445,0.02106306329,445,0.0288936086,445,0.03552872315,445,0.04184508324,
444,-0.01256947406,444,-0.0001455582969,444,0.01108642202,444,0.02030987479,444,0.02781911939,444,0.03405246511,444,0.04038007185,
443,-0.01261342969,443,-0.0002019671228,443,0.0109011326,443,0.01985825598,443,0.02720609494,443,0.03332226351,443,0.03927988186,
442,-0.01279609464,442,-7.262995496E-5,442,0.0107942,442,0.01940632239,442,0.02649611048,442,0.03247293085,442,0.03822136298,
441,-0.01264551375,441,-0.0002120578429,441,0.01005308516,441,0.01853609085,441,0.0256166216,441,0.03131585196,441,0.03722357005,
440,-0.01263274066,440,-0.0001003224243,440,0.009984370321,440,0.01809559576,440,0.02501341514,440,0.03076233529,440,0.03630744666,
439,-0.01283309143,439,-1.206269371E-5,439,0.01006606687,439,0.01787316799,439,0.02459906787,439,0.03023216687,439,0.03559932485,
438,-0.01260669064,438,-0.0001076205226,438,0.009487633593,438,0.01734085009,438,0.02378344908,438,0.02916020527,438,0.03458095342,
437,-0.01254498027,437,-0.0004427866661,437,0.009139669128,437,0.0167823825,437,0.02310240269,437,0.02849019505,437,0.03350529075,
436,-0.01286355034,436,-0.0001809052337,436,0.009298052639,436,0.01656336896,436,0.02286299132,436,0.02804460004,436,0.03302796185,
435,-0.01272420399,435,-0.0003425433242,435,0.008797240444,435,0.01621216349,435,0.02217289619,435,0.02727133222,435,0.03237586468,
434,-0.01260729413,434,-0.00042783955,434,0.008445261978,434,0.01575074717,434,0.02174837515,434,0.02663067728,434,0.03163786605,
433,-0.01283324137,433,-0.0002653019037,433,0.008729727007,433,0.01538195927,433,0.02168039605,433,0.02662374079,433,0.03106922843,
432,-0.01294521615,432,-0.0001562195976,432,0.008475642651,432,0.01547854673,432,0.02124991454,432,0.02617873624,432,0.03092936054,
431,-0.0127298357,431,-0.0003127451928,431,0.008225110359,431,0.0150302602,431,0.02082580514,431,0.02557900548,431,0.03035440482,
430,-0.01293632202,430,-0.0001384678471,430,0.008284919895,430,0.01488833688,430,0.02062713914,430,0.02534335665,430,0.03009517677,
429,-0.01288531255,429,-0.0002958276018,429,0.007973325439,429,0.01472270675,429,0.02046416327,429,0.0251656808,429,0.02953102067,
428,-0.01285761967,428,-0.0001813709823,428,0.00793396309,428,0.01454375591,428,0.020134978,428,0.02466410585,428,0.02947790921,
427,-0.01296637207,427,-0.000224062911,427,0.00801559072,427,0.0145052122,427,0.02030133083,427,0.02475220151,427,0.02920480631,
426,-0.01300702151,426,-0.0002696998126,426,0.007955713198,426,0.01448578108,426,0.01997739077,426,0.02474074811,426,0.02922371589,
425,-0.01283314079,425,-0.0004076679179,425,0.007711488288,425,0.01437812299,425,0.01972674765,425,0.02435171045,425,0.02901887521,
424,-0.01298973709,424,-0.0003053988039,424,0.007790517993,424,0.0142183844,424,0.01992879622,424,0.02452817559,424,0.02893535979,
423,-0.01305570547,423,-0.0003530446265,423,0.007909287699,423,0.01438425109,423,0.0199567657,423,0.0246202983,423,0.02907309309,
422,-0.01309624594,422,-0.0003292999463,422,0.00793304015,422,0.01452354714,422,0.0199921634,422,0.02461838163,422,0.02930055745,
421,-0.01299802773,421,-0.0002177499409,421,0.007827758789,421,0.01447140984,421,0.02002108656,421,0.02467862889,421,0.02913257666,
420,-0.0131089557,420,-0.0001963783288,420,0.008084866218,420,0.01469533984,420,0.02033672854,420,0.02510514669,420,0.02944300324,
419,-0.01308333594,419,-0.0003542343911,419,0.007784588262,419,0.01459485851,419,0.02026975714,419,0.02479698323,419,0.0294486545,
418,-0.01263319328,418,-0.0002427425352,418,0.007875730284,418,0.01437212992,418,0.02001799643,418,0.02481770329,418,0.02962850593,
417,-0.0129995849,417,3.256576747E-5,417,0.008194535971,417,0.01490218751,417,0.02079582401,417,0.02557609417,417,0.03044810519,
416,-0.01323667821,416,-8.00320413E-5,416,0.008394773118,416,0.01545931306,416,0.02127590217,416,0.0263324026,416,0.03119526245,
415,-0.01309760287,415,-0.0002377751807,415,0.008486095816,415,0.01556691714,415,0.02145452239,415,0.0265690852,415,0.03153321892,
414,-0.01302043628,414,-0.0001927041594,414,0.008533163927,414,0.01571612246,414,0.02184480987,414,0.02693345211,414,0.03197926283,
413,-0.01328061614,413,-6.522774493E-5,413,0.008949447423,413,0.01632890478,413,0.02245341428,413,0.02778326906,413,0.03275105357,
412,-0.01307750866,412,-0.0003480785235,412,0.008911080658,412,0.01649364457,412,0.02285420522,412,0.02815067396,412,0.0333089605,
411,-0.01306098048,411,-0.0002917921229,411,0.008973362856,411,0.01664510369,411,0.02328079194,411,0.02861694805,411,0.03398068622,
410,-0.01302134059,410,-0.0003159009793,410,0.009340633638,410,0.01708883978,410,0.02381965332,410,0.02939419635,410,0.03471216187,
409,-0.01316596568,409,-0.0001592730405,409,0.009529544972,409,0.01776391268,409,0.02430609986,409,0.03027599119,409,0.03566884249,
408,-0.01295521669,408,-0.0003814433876,408,0.009540500119,408,0.01781172678,408,0.02487282455,408,0.03060703911,408,0.03620968759,
407,-0.0130661549,407,-0.0003123830247,407,0.009945408441,407,0.01829926297,407,0.02542044595,407,0.03164081648,407,0.03729681671,
406,-0.0132715283,406,-6.750535977E-5,406,0.01044590306,406,0.01908613369,406,0.02636579424,406,0.03259976208,406,0.03860715777,
405,-0.01309448853,405,-0.0002967071487,405,0.01054259203,405,0.01929310709,405,0.02673403732,405,0.03313271701,405,0.03911621496,
404,-0.01308077388,404,-0.0005085684825,404,0.01069742907,404,0.01983880065,404,0.02750827931,404,0.0341258496,404,0.04010769725,
403,-0.01311870012,403,-0.0003181255597,403,0.0110439891,403,0.02017866261,403,0.02822033502,403,0.03496229276,403,0.04134085029,
402,-0.01314351428,402,-0.0002484859724,402,0.01115339994,402,0.02093993686,402,0.02896546572,402,0.03582826629,402,0.04246461019,
401,-0.01302214526,401,-0.0004623360583,401,0.01103894413,401,0.02083199657,401,0.0293493811,401,0.03620167077,401,0.04285567999,
400,-0.01356553007,400,-0.0002306862443,400,0.01189269777,400,0.0219815094,400,0.03058467992,400,0.03780995682,400,0.04461467639,
399,-0.01347163413,399,-0.0002046062582,399,0.01224926673,399,0.02237905748,399,0.03119601309,399,0.03857021034,399,0.04551527649,
398,-0.0134582324,398,-0.0001717970736,398,0.01230638381,398,0.02294245176,398,0.03199692816,398,0.03953668475,398,0.04634738341,
397,-0.01360772923,397,-0.0002166632767,397,0.01291970536,397,0.02359832264,397,0.03266503289,397,0.04046277702,397,0.04772017524,
396,-0.01344839483,396,-0.0005038109957,396,0.01292167883,396,0.02410679311,396,0.03327670693,396,0.04120939225,396,0.04865759239,
395,-0.01346947532,395,-0.0002478133247,395,0.01326414756,395,0.02442616038,395,0.0339807421,395,0.04219414294,395,0.04966735095,
394,-0.01346264966,394,-0.0002596104168,394,0.01364868972,394,0.02484308369,394,0.03486792371,394,0.04313173145,394,0.05077194795,
393,-0.01363045815,393,-0.0001270297507,393,0.0139472764,393,0.02574805915,393,0.03549804538,393,0.04387882724,393,0.05137978494,
392,-0.01341009606,392,-0.0003767362505,392,0.0140414862,392,0.02610670775,392,0.03575948253,392,0.04446412623,392,0.05220082402,
391,-0.01314908918,391,-0.0003233506577,391,0.01387567073,391,0.02592751198,391,0.03607195243,391,0.04509966448,391,0.05309522897,
390,-0.01351810805,390,-0.0002011909091,390,0.01472948212,390,0.02702831663,390,0.03740266338,390,0.04631230608,390,0.05443376675,
389,-0.01345773041,389,-5.508184768E-5,389,0.01477407105,389,0.02730802074,389,0.03794595599,389,0.04705705121,389,0.05537445098,
388,-0.0134725878,388,-0.0004199779069,388,0.01517646573,388,0.02770004794,388,0.03857157007,388,0.04786977544,388,0.05602428317,
387,-0.01358203962,387,-0.0003163665824,387,0.0156441424,387,0.0282148663,387,0.03927398846,387,0.04848809168,387,0.05706060678,
386,-0.01345371548,386,-0.0001765064371,386,0.01563813165,386,0.028637629,386,0.03973602504,386,0.04918306321,386,0.05781406537,
385,-0.01342550572,385,-0.0002448640007,385,0.01552294474,385,0.02866597101,385,0.04022510722,385,0.04987064004,385,0.05831903219,
384,-0.01334222313,384,-0.0002808754507,384,0.01575216837,384,0.02914281934,384,0.04060018063,384,0.05025402457,384,0.05912753195,
383,-0.01358294208,383,-0.0002038300445,383,0.01655551791,383,0.02987084538,383,0.04134654626,383,0.0511902906,383,0.05966191366,
382,-0.01368614566,382,8.975592937E-5,382,0.01654416882,382,0.03017455712,382,0.04202997312,382,0.05207438394,382,0.0610126555,
381,-0.01369798463,381,0.0001462026703,381,0.0168076735,381,0.03046701476,381,0.04267489165,381,0.05283551663,381,0.06201354414,
380,-0.01370565966,380,-0.0002635427227,380,0.01750025898,380,0.03126110137,380,0.04300687462,380,0.05346580967,380,0.06249777228,
379,-0.01351775695,379,-9.690625302E-5,379,0.01703265123,379,0.03138232231,379,0.04384930432,379,0.0544286035,379,0.06334551424,
378,-0.01363728195,378,-0.0001796114811,378,0.01728029177,378,0.03192495927,378,0.0437692441,378,0.05462946743,378,0.06418737769,
377,-0.01364671346,377,-0.0002255117724,377,0.01773279533,377,0.0317017138,377,0.04450212419,377,0.05520234257,377,0.06467352808,
376,-0.01362659503,376,-7.21123215E-5,376,0.01816827804,376,0.03281749412,376,0.04535970092,376,0.05629310012,376,0.06598235667,
375,-0.0131485872,375,-0.0006060851156,375,0.01809651218,375,0.03262208402,375,0.04582285509,375,0.05628841743,375,0.06652174145,
374,-0.01352759264,374,-0.0001948258578,374,0.01825825125,374,0.03344817087,374,0.04668408632,374,0.05779771134,374,0.06701981276,
373,-0.0137032019,373,-0.0003202466469,373,0.01885325089,373,0.0341921635,373,0.04804062471,373,0.05862426013,373,0.06879349798,
372,-0.01277518272,372,-0.0005683426862,372,0.01816706359,372,0.03355789185,372,0.0471213311,372,0.05920575559,372,0.06911410391,
371,-0.01322824135,371,-0.0003386634635,371,0.0196350608,371,0.03493266925,371,0.04864172265,371,0.06039946526,371,0.07045259327,
370,-0.01269846223,370,-0.0003340076073,370,0.0188938044,370,0.03507697582,370,0.04838845134,370,0.06055596843,370,0.07065199316,
369,-0.01281936839,369,-0.0002850145102,369,0.0194367487,369,0.03617055342,369,0.04942197725,369,0.06120383367,369,0.07181764394,
368,-0.01314260997,368,-0.0001155395948,368,0.01973755471,368,0.03626402467,368,0.05020267516,368,0.06238966435,368,0.07298865914,
367,-0.01289767586,367,0.0001156480139,367,0.02003987134,367,0.03626264632,367,0.05057442933,367,0.06298628449,367,0.07352376729,
366,-0.01332650799,366,0.0002110736968,366,0.02033827454,366,0.03763958812,366,0.05165282637,366,0.0642387867,366,0.07494395226,
365,-0.01294260379,365,-0.0005246503861,365,0.02037042193,365,0.03732982278,365,0.05215251446,365,0.06418114156,365,0.07496022433,
364,-0.01278583985,364,7.365182682E-5,364,0.0208869148,364,0.03761751205,364,0.05226350576,364,0.06491607428,364,0.07542434335,
363,-0.01268272381,363,-0.0003870298096,363,0.02084435336,363,0.03784051538,363,0.05295402184,363,0.06519715488,363,0.07614864409,
362,-0.01267362293,362,-0.0001152808036,362,0.0209506657,362,0.03860894218,362,0.05280435458,362,0.06610871851,362,0.0769662112,
361,-0.01293184981,361,0.0001003714933,361,0.02112379856,361,0.03900241479,361,0.05346343666,361,0.06670289487,361,0.07734375447,
360,-0.01321267337,360,0.0006072432152,360,0.02192351408,360,0.03928282857,360,0.05433210731,360,0.0671581775,360,0.07786706835,
359,-0.01270193141,359,0.0001260570716,359,0.0211014878,359,0.03907038644,359,0.05395697802,359,0.06685178727,359,0.07809825242,
358,-0.01266235951,358,-0.0001125893687,358,0.02146371454,358,0.03929951787,358,0.05391699821,358,0.06674455106,358,0.0778644383,
357,-0.01252973918,357,-4.597104635E-5,357,0.0211675819,357,0.03929175436,357,0.05406716838,357,0.06723447889,357,0.07788980007,
356,-0.01267005224,356,9.69537723E-5,356,0.02137370035,356,0.03922956064,356,0.05431104451,356,0.06687098742,356,0.07789831609,
355,-0.0122396145,355,-0.0002254600258,355,0.02116896771,355,0.03870333731,355,0.05384684354,355,0.06726161391,355,0.07766510546,
354,-0.0126816174,354,-9.908018546E-5,354,0.02106379718,354,0.03905424103,354,0.05379550532,354,0.06698837131,354,0.07817569375,
353,-0.01235118974,353,6.226021651E-5,353,0.02112048306,353,0.03888830915,353,0.05401935428,353,0.06657605618,353,0.07807374746,
352,-0.01235380583,352,-0.0001287377236,352,0.02111477591,352,0.03905350342,352,0.05394399166,352,0.06668481976,352,0.07776280493,
351,-0.01239436213,351,-8.168843488E-5,351,0.02122566663,351,0.03892398253,351,0.05374529213,351,0.06674542278,351,0.07812286168,
350,-0.01228888799,350,4.141757017E-7,350,0.02120087668,350,0.03868779913,350,0.05359707773,350,0.0665807277,350,0.07757354528,
349,-0.01273983996,349,0.0005590306246,349,0.02122925408,349,0.03903815523,349,0.05378296599,349,0.06692788005,349,0.0777824074,
348,-0.0123867644,348,5.514061195E-5,348,0.02102646418,348,0.03865087405,348,0.05367448926,348,0.06667479873,348,0.07753814757,
347,-0.01244462375,347,0.0004447674146,347,0.02119337395,347,0.03912473843,347,0.05377570167,347,0.06658411026,347,0.07772432268,
346,-0.012239011,346,-7.899678894E-5,346,0.02127655596,346,0.03860582784,346,0.05352023616,346,0.06633541733,346,0.07767377049,
345,-0.01231017616,345,0.0002938533726,345,0.02148824744,345,0.03897404298,345,0.05393695831,345,0.06677483022,345,0.07771627605,
344,-0.01196390297,344,-0.0001599975803,344,0.02111015655,344,0.03892109171,344,0.05378871039,344,0.06668768078,344,0.07806101441,
343,-0.01223065518,343,0.0001793750271,343,0.02170899697,343,0.0394526273,343,0.05445876718,343,0.06751359254,343,0.07847052068,
342,-0.01198878232,342,0.0001179265964,342,0.02177458443,342,0.03975772485,342,0.05507167429,342,0.0681290403,342,0.07911667973,
341,-0.01196072996,341,0.0001426033268,341,0.02228997089,341,0.04023984447,341,0.05563247949,341,0.06896340102,341,0.0805259794,
340,-0.01192098949,340,0.0001780542952,340,0.02220150083,340,0.04096874967,340,0.05669671297,340,0.07029634714,340,0.08209491521,
339,-0.01241956931,339,0.0007018694887,339,0.02330829576,339,0.04246152565,339,0.05890382454,339,0.07263758779,339,0.08442616463,
338,-0.01168897282,338,-1.356403573E-5,338,0.02368242852,338,0.04294240102,338,0.05975253135,338,0.07420942932,338,0.08626962453,
337,-0.01170580462,337,0.0001809029345,337,0.02431201376,337,0.0448927097,337,0.06191099063,337,0.07684393227,337,0.08970997483,
336,-0.01163716149,336,-0.0001213882279,336,0.02555638179,336,0.04670192674,336,0.06473782659,336,0.08053220809,336,0.0940271318,
335,-0.01167687774,335,1.915603934E-5,335,0.02732299082,335,0.04979396239,335,0.06834452599,335,0.08507696539,335,0.09890124947,
334,-0.01169633027,334,-0.0002208546939,334,0.02882331423,334,0.05242712423,334,0.07258954644,334,0.09018631279,334,0.1053926945,
333,-0.0115400739,333,0.0001872217836,333,0.03091076575,333,0.05616151541,333,0.0780396983,333,0.0968934074,333,0.1131635904,
332,-0.01148537081,332,0.000104436549,332,0.03350067884,332,0.06070982292,332,0.08404690027,332,0.1048359573,332,0.1225679889,
331,-0.01136706769,331,2.940745617E-5,331,0.03656956553,331,0.06642086059,331,0.09186525643,331,0.1138797104,331,0.1325826049,
330,-0.01130513009,330,-7.248065117E-7,330,0.03975557163,330,0.07252701372,330,0.1002045497,330,0.1246128008,330,0.1456358284,
329,-0.01110432576,329,-0.0003549068933,329,0.04352906719,329,0.07951139659,329,0.1096929982,329,0.1369374841,329,0.1595297307,
328,-0.01136787515,328,0.0002264577051,328,0.04815930128,328,0.08749719709,328,0.121443972,328,0.1509114653,328,0.1761101931,
327,-0.01106496155,327,-4.234737935E-5,327,0.05270830542,327,0.09598921984,327,0.1328524649,327,0.1653334945,327,0.1929361671,
326,-0.01121069305,326,-6.621125794E-5,326,0.05769209936,326,0.1054376736,326,0.1457744986,326,0.1815284193,326,0.2111327052,
325,-0.01112259366,325,1.190770854E-5,325,0.06281740963,325,0.1147812754,325,0.1586403698,325,0.1974961907,325,0.2300130725,
324,-0.01144190598,324,0.0002145182225,324,0.06838455051,324,0.1239767745,324,0.1721586883,324,0.2140220404,324,0.2493081689,
323,-0.01124141738,323,0.0003142139758,323,0.07292729616,323,0.1332432628,323,0.184799239,323,0.2292640209,323,0.2674993277,
322,-0.01103377063,322,0.0001521067024,322,0.07765259594,322,0.1415431499,322,0.1963282973,322,0.2439263761,322,0.2841476798,
321,-0.01077274512,321,-0.0001632062485,321,0.08184302598,321,0.1493825465,321,0.2068143338,321,0.2563784122,321,0.2991448343,
320,-0.01089105941,320,9.956884605E-5,320,0.08531948924,320,0.155575484,320,0.2156649381,320,0.2677309215,320,0.3118591011,
319,-0.01102417987,319,0.000193048676,319,0.08844777197,319,0.1614330858,319,0.2231260091,319,0.2767632306,319,0.3229017258,
318,-0.01055254508,318,-0.0001122270551,318,0.09012269229,318,0.1647711992,318,0.2287288159,318,0.2836977541,318,0.3305563033,
317,-0.01067733392,317,-0.0001186968293,317,0.09218399227,317,0.1681178957,317,0.2329850644,317,0.289000988,317,0.3368141353,
316,-0.01066707913,316,-5.1147661E-5,316,0.0933604762,316,0.1702326983,316,0.2359716594,316,0.292617023,316,0.3410436213,
315,-0.01071395539,315,4.413781789E-5,315,0.0938180238,315,0.1715418398,315,0.2375447303,315,0.2946116924,315,0.3434372246,
314,-0.01091529336,314,0.0002982310834,314,0.09470067173,314,0.1723829657,314,0.2384662181,314,0.2954385877,314,0.3444423974,
313,-0.0105092898,313,0.0001457624603,313,0.09394475818,313,0.1719139516,313,0.2381119281,313,0.2951272726,313,0.343849659,
312,-0.01045096945,312,-0.0003920989111,312,0.09392100573,312,0.1715296656,312,0.237327829,312,0.2943904698,312,0.3432596922,
311,-0.01069582161,311,-0.0002412419853,311,0.0930608809,311,0.1710429192,311,0.2360025942,311,0.2926863432,311,0.341284126,
310,-0.01034016907,310,-0.0002129892819,310,0.09226033837,310,0.1694699973,310,0.2337840497,310,0.2899043262,310,0.3381189406,
309,-0.01031559985,309,-0.0001773344411,309,0.09140167385,309,0.1669653505,309,0.2314615697,309,0.2871246338,309,0.3347844779,
308,-0.01075703837,308,-0.0001227856701,308,0.09018854797,308,0.1651585549,308,0.228244558,308,0.2826397717,308,0.3298843205,
307,-0.01056598499,307,0.0001687057375,307,0.08903431147,307,0.1628673524,307,0.2247761041,307,0.2788951993,307,0.3250854909,
306,-0.01046395861,306,0.0002307829418,306,0.08724054694,306,0.1595103741,306,0.220967263,306,0.2738997638,306,0.3191705942,
305,-0.01041285973,305,9.70734618E-6,305,0.08552337438,305,0.1563701779,305,0.2164987475,305,0.2684069872,305,0.31253618,
304,-0.01051146258,304,0.0002571496589,304,0.08367883414,304,0.1532236636,304,0.2115841657,304,0.2623136342,304,0.306150198,
303,-0.01011777669,303,1.032862383E-5,303,0.08198754489,303,0.1495808512,303,0.2069353312,303,0.256424427,303,0.2991188467,
302,-0.01005985867,302,-0.000321902131,302,0.07991160452,302,0.1462973803,302,0.2023811191,302,0.2508071363,302,0.2924937308,
301,-0.01019920222,301,0.0002171599044,301,0.07845544815,301,0.1431521475,301,0.1984611452,301,0.2461405694,301,0.2867431343,
300,-0.01017963141,300,0.0002895274956,300,0.07704109699,300,0.1405006349,300,0.1946651489,300,0.2414348722,300,0.2813549936,
299,-0.01025406737,299,6.275212218E-5,299,0.07583824545,299,0.1381966323,299,0.1915380508,299,0.2373479009,299,0.2766684592,
298,-0.01031934097,298,0.0002493016364,298,0.07488538325,298,0.1363707185,298,0.1884976178,298,0.2336227596,298,0.2725278437,
297,-0.01010275446,297,-0.0001073099629,297,0.07345840335,297,0.1344528496,297,0.1857745498,297,0.2300890833,297,0.268373847,
296,-0.01006223634,296,0.0001418782776,296,0.0724581331,296,0.132459119,296,0.1831727922,296,0.2270122766,296,0.2647303343,
295,-0.009907920845,295,6.148352986E-5,295,0.07123900205,295,0.1305423528,295,0.1804526746,295,0.2237169296,295,0.2609277368,
294,-0.01007801946,294,0.0001600306568,294,0.07075306773,294,0.128987506,294,0.1780721843,294,0.2206840515,294,0.2575188279,
293,-0.009930237196,293,0.0002162275341,293,0.06948087364,293,0.1270496696,293,0.1754520833,293,0.217641741,293,0.2537038624,
292,-0.009838283993,292,0.0001002679273,292,0.06852577627,292,0.1254809201,292,0.173361361,292,0.2143902928,292,0.2501387,
291,-0.009856959805,291,-3.546232983E-5,291,0.06760250777,291,0.1238584965,291,0.1713006794,291,0.2119436413,291,0.2470951378,
290,-0.009842434898,290,0.0003248868452,290,0.0670415014,290,0.1226301566,290,0.1696241051,290,0.2098552436,290,0.2445402443,
289,-0.009806397371,289,7.077800547E-5,289,0.06658513844,289,0.12182004,289,0.1685009003,289,0.208498612,289,0.2428650558,
288,-0.009493882768,288,-0.0001041526484,288,0.06632287055,288,0.1208239198,288,0.1674754024,288,0.2078013718,288,0.2419193685,
287,-0.009605404921,287,2.371219489E-5,287,0.06677050889,287,0.1212986559,287,0.167856425,287,0.2079503387,287,0.2424017936,
286,-0.009477116168,286,0.000189241764,286,0.06701664627,286,0.1221790388,286,0.1689313948,286,0.2094364911,286,0.243970722,
285,-0.009507457726,285,5.172324381E-5,285,0.06784629822,285,0.1234995499,285,0.1710126102,285,0.2116941959,285,0.2469107211,
284,-0.009611126967,284,0.0003664151009,284,0.06884248555,284,0.1252043694,284,0.1733366996,284,0.2147618681,284,0.250498265,
283,-0.009304046631,283,4.123830513E-5,283,0.0695881471,283,0.1269700378,283,0.1757740527,283,0.2178328633,283,0.2537198961,
282,-0.009355782531,282,0.0001867556421,282,0.07068163157,282,0.1286160499,282,0.1781198531,282,0.2209471166,282,0.2572643161,
281,-0.009234261699,281,0.0001364663767,281,0.07123793662,281,0.1304427534,281,0.1796815693,281,0.2226167172,281,0.2594704926,
280,-0.009366523474,280,0.0001517700584,280,0.07159383595,280,0.1309651285,280,0.1804663241,280,0.2239018083,280,0.2607022226,
279,-0.009407005273,279,0.0002957184042,279,0.07164923847,279,0.1309231669,279,0.1800795346,279,0.223230958,279,0.2602999806,
278,-0.009486639872,278,0.000333927921,278,0.0711556524,278,0.1294413358,278,0.178877607,278,0.2214701921,278,0.2579098046,
277,-0.009519916959,277,0.0002222620096,277,0.07012525201,277,0.127790913,277,0.1761370301,277,0.2184506804,277,0.2540923655,
276,-0.009367283434,276,7.468744298E-5,276,0.06859998405,276,0.1255046576,276,0.1733404845,276,0.2140237838,276,0.2495055199,
275,-0.00946171768,275,4.695968528E-5,275,0.06745233387,275,0.1229377761,275,0.1698907018,275,0.2097980082,275,0.2444583923,
274,-0.009490033612,274,0.0001248659682,274,0.06596129388,274,0.1204439402,274,0.1667324156,274,0.2057094723,274,0.2393762916,
273,-0.009586769156,273,-2.961253813E-5,273,0.06461624056,273,0.1179720834,273,0.1631067395,273,0.2013880759,273,0.2347163111,
272,-0.009539872408,272,-9.390414198E-5,272,0.06329696625,272,0.115190044,272,0.1592396349,272,0.1971412152,272,0.2298520654,
271,-0.009714064188,271,-1.30981025E-5,271,0.0622199811,271,0.1127890795,271,0.1560167521,271,0.1931093186,271,0.2248059809,
270,-0.009735073894,270,0.000199056929,270,0.06083079427,270,0.1103531122,270,0.1525366306,270,0.1889660656,270,0.2199633718,
269,-0.009873913601,269,0.0002547926561,269,0.05947619304,269,0.1079430506,269,0.1490972191,269,0.1843427122,269,0.2146435976,
268,-0.009512522258,268,-3.297747025E-5,268,0.0575982146,268,0.1046489179,268,0.1448665559,268,0.179213658,268,0.208927691,
267,-0.009391907603,267,-2.49015884E-5,267,0.05597398803,267,0.1014245749,267,0.1406179219,267,0.1740301698,267,0.202592507,
266,-0.009450167418,266,-0.0001051878353,266,0.05415128917,266,0.09853434563,266,0.136574477,266,0.168786779,266,0.1966289878,
265,-0.009587984532,265,7.297867705E-5,265,0.05256415531,265,0.09599099308,265,0.132251054,265,0.1635348946,265,0.1905575395,
264,-0.00943664182,264,-7.055941387E-5,264,0.05074398965,264,0.0928016603,264,0.1279420704,264,0.1583617628,264,0.1844804138,
263,-0.009415161796,263,-0.0001414696599,263,0.04933575168,263,0.0899226889,263,0.1241313964,263,0.153727293,263,0.1792382896,
262,-0.009660243988,262,-9.664745448E-5,262,0.0483366847,262,0.08796747029,262,0.1212739125,262,0.1498889476,262,0.1745159775,
261,-0.009734263644,261,-5.746304669E-5,261,0.04708630219,261,0.08587408811,261,0.1186422631,261,0.1464601457,261,0.1706684977,
260,-0.009921280667,260,2.17188699E-5,260,0.04621163383,260,0.08414693177,260,0.1163535267,260,0.1436345428,260,0.1675039828,
259,-0.009881606326,259,6.21566578E-5,259,0.04540450498,259,0.0829128027,259,0.1144169793,259,0.1413882673,259,0.1647177786,
258,-0.01002849452,258,0.0001476009784,258,0.04508963972,258,0.08189150691,258,0.1131654382,258,0.1400448978,258,0.1626917124,
257,-0.009902961552,257,-7.418284804E-5,257,0.0442728661,257,0.08095338941,257,0.1119521335,257,0.1387041807,257,0.160952419,
256,-0.009888539091,256,3.05724061E-5,256,0.04393040761,256,0.08019394428,256,0.1109453142,256,0.1373271048,256,0.1594065875,
255,-0.009956600145,255,-5.02158764E-5,255,0.04384320229,255,0.07990366966,255,0.1105661616,255,0.136750862,255,0.1589377224,
254,-0.01014256012,254,0.0002029157331,254,0.04380686581,254,0.07970685512,254,0.1100768596,254,0.1363038868,254,0.1585462391,
253,-0.009999808855,253,-7.335464034E-5,253,0.04336256161,253,0.07915426046,253,0.1094735116,253,0.1356725395,253,0.1579289883,
252,-0.01017831638,252,0.0001179007013,252,0.04345115647,252,0.07907406986,252,0.1092151254,252,0.1354059726,252,0.157666266,
251,-0.01011403371,251,0.0001947838173,251,0.04302502051,251,0.07850442082,251,0.1088698432,251,0.1349406838,251,0.1570650935,
250,-0.01000441238,250,-4.400391845E-5,250,0.04296823218,250,0.07838252187,250,0.1084847823,250,0.134145245,250,0.1563936323,
249,-0.01019131299,249,0.0001149230156,249,0.04284993559,249,0.07825088501,249,0.1083597168,249,0.1339357495,249,0.1559557319,
248,-0.01019429695,248,0.0002495865629,248,0.04282056913,248,0.07815716416,248,0.1080937609,248,0.1336010247,248,0.1556058526,
247,-0.01019682549,247,-1.377111676E-5,247,0.04262343422,247,0.077921018,247,0.1076696813,247,0.1334797442,247,0.155371353,
246,-0.01032424439,246,5.527005851E-5,246,0.04299484193,246,0.0780364126,246,0.1078607142,246,0.1337029338,246,0.1553627998,
245,-0.01033784356,245,0.0001518995414,245,0.04291728139,245,0.07835796475,245,0.1081434339,245,0.1340364367,245,0.1559873521,
244,-0.01029325277,244,5.760010026E-5,244,0.04310603067,244,0.0787891373,244,0.1089069247,244,0.1350282729,244,0.1573045254,
243,-0.01040093135,243,1.459993109E-5,243,0.04379509762,243,0.07992439717,243,0.1105457619,243,0.1369149834,243,0.1593359709,
242,-0.01038328931,242,4.807290316E-5,242,0.04465414956,242,0.08155468106,242,0.1126417965,242,0.1396551281,242,0.1627155095,
241,-0.01049043983,241,9.537438018E-5,241,0.04594608024,241,0.08401731402,241,0.115992479,241,0.1437821984,241,0.1675286889,
240,-0.01037601102,240,8.633828838E-5,240,0.04761112109,240,0.08699388057,240,0.120285131,240,0.1493434012,240,0.173166424,
239,-0.01006780099,239,-0.0001534766634,239,0.0496589914,239,0.09069953859,239,0.1255401522,239,0.1559045464,239,0.1809305698,
238,-0.0100715952,238,-0.0001711243094,238,0.05230838433,238,0.09590663016,238,0.1326613724,238,0.1644233763,238,0.191300571,
237,-0.01019889861,237,8.804710524E-5,237,0.05603792146,237,0.1022937074,237,0.1415855139,237,0.1754735708,237,0.2042712718,
236,-0.009993585758,236,9.392444917E-5,236,0.06026178226,236,0.1102452278,236,0.1517644823,236,0.1886617392,236,0.2194208205,
235,-0.009794907644,235,-0.0003464231559,235,0.06520536542,235,0.1189712361,235,0.1647338271,235,0.2048297077,235,0.2382340878,
234,-0.009625609964,234,-1.501360202E-5,234,0.07173735648,234,0.1306280941,234,0.1806423515,234,0.2246904522,234,0.261467278,
233,-0.009450623766,233,-0.0002986731124,233,0.079173401,233,0.1447968632,233,0.2005494684,233,0.2495515496,233,0.2902760804,
232,-0.009356390685,232,-0.0001880467316,232,0.08915612102,232,0.163043499,232,0.2254409045,232,0.2805495262,232,0.3263232112,
231,-0.009139019065,231,-0.0002679923782,231,0.1011888012,231,0.1854028404,231,0.256290704,231,0.3190206885,231,0.370763272,
230,-0.008954251185,230,-0.0003679425572,230,0.1169674993,230,0.2139694691,230,0.2953675985,230,0.3680684865,230,0.4270872474,
229,-0.008915502578,229,-0.0004184779536,229,0.1366238743,229,0.2491615862,229,0.3439364433,229,0.4282677174,229,0.4971053004,
228,-0.009133948945,228,-0.0001362423645,228,0.1614598185,228,0.2941173315,228,0.4055054784,228,0.5038254857,228,0.5839907527,
227,-0.008348590694,227,-0.0005720653571,227,0.1924748421,227,0.3498258591,227,0.4814996421,227,0.5986884832,227,0.6936702728,
226,-0.009634471498,226,-0.0004976572236,226,0.2288135886,226,0.4167283475,226,0.5712634325,226,0.7086506486,226,0.8196187019,
225,-0.01000618376,225,-0.0008196042618,225,0.2750374973,225,0.4987381399,225,0.6826161146,225,0.8451064229,225,0.9751462936,
224,-0.01070834883,224,-0.0003403706069,224,0.3321051896,224,0.5991616249,224,0.8153968453,224,1.006722808,224,1.157874227,
223,-0.00892255269,223,-0.0007848259993,223,0.3997588456,223,0.7185090184,223,0.9756945372,223,1.19699049,223,1.369863629,
222,-0.01191700995,222,-0.0008815573528,222,0.4759524763,222,0.8484503031,222,1.14245069,222,1.388077021,222,1.57407701,
221,-0.009773141704,221,-0.001465104986,221,0.561425209,221,0.9921954274,221,1.31897366,221,1.574058175,221,1.757943511,
220,-0.01387994364,220,-0.001064109965,220,0.6707153916,220,1.155146718,220,1.493079066,220,1.732627749,220,1.886995196,
219,-0.01121816039,219,-0.0009634417365,219,0.7577471733,219,1.269530416,219,1.584903121,219,1.773662925,219,1.887523174,
218,-0.01646884158,218,-0.001167181646,218,0.8608205914,218,1.352607131,218,1.602013826,218,1.742890358,218,1.834279299,
217,-0.01027687173,217,-0.002793051768,217,0.9037499428,217,1.326716661,217,1.52435267,217,1.632583976,217,1.706408858,
216,-0.01841969043,216,-0.003072898369,216,0.9148276448,216,1.244401574,216,1.393628955,216,1.486493587,216,1.55764389,
215,-0.01190517284,215,-0.002720875433,215,0.8360362053,215,1.09392333,215,1.224455714,215,1.307524562,215,1.379348159,
214,-0.009860300459,214,-0.005896119867,214,0.703291893,214,0.9163826704,214,1.038641453,214,1.120761395,214,1.188943028,
213,-0.02026097849,213,0.00488272449,213,0.5728017688,213,0.7646809816,213,0.8763384223,213,0.9541809559,213,1.025250912,
212,-0.009193156846,212,-0.005227355752,212,0.4534646571,212,0.6159049273,212,0.7308200598,212,0.8289737701,212,0.8872244954,
211,-0.006869007368,211,-0.009777241386,211,0.3704649508,211,0.542725563,211,0.6541519761,211,0.7590060234,211,0.8151432872,
210,-0.0128563121,210,-0.009967579506,210,0.3324459493,210,0.5112879276,210,0.6344205141,210,0.7166662216,210,0.7703799605,
209,0.0004749824293,209,-0.01489671506,209,0.3150516748,209,0.4887262285,209,0.6039847732,209,0.6758701205,209,0.7770818472,
208,-0.02250623144,208,0.01567513868,208,0.3255701959,208,0.4946150184,208,0.6224615574,208,0.7200862169,208,0.7780222893,
207,-0.01038647443,207,-0.002343130065,207,0.3141001761,207,0.4894376397,207,0.6110980511,207,0.7016534805,207,0.7988526225,
206,-0.002171674743,206,-0.005418316927,206,0.3118584454,206,0.4733556807,206,0.6020850539,206,0.6890141368,206,0.7743687034,
205,-0.006536725909,205,0.003743250854,205,0.33877635,205,0.4955841899,205,0.6321642995,205,0.7180585861,205,0.7954074144,
204,-0.02190009318,204,0.02031014487,204,0.3397396505,204,0.5117726922,204,0.6392598152,204,0.7266688347,204,0.7897107601,
203,-0.00953886006,203,0.0008761135978,203,0.3266325593,203,0.5132005215,203,0.6608649492,203,0.7498716712,203,0.8116415143,
202,-0.02370529249,202,0.0108298678,202,0.3448044658,202,0.5221861601,202,0.6319812536,202,0.7409690619,202,0.7833370566,
201,0.005871884525,201,-0.01517582219,201,0.3095043898,201,0.4694844186,201,0.6263152957,201,0.6909187436,201,0.7407075167,
200,-0.01597289555,200,0.02159956098,200,0.3072041869,200,0.5103808045,200,0.5774942636,200,0.6928017735,200,0.6963810325,

Baseline 100%T,
Baseline 100%T
Collection Time: 01/08/2022 12:48:15
Operator Name  :
Scan Software Version: 4.10(464)
Parameter List :
Instrument                        Cary 300
Instrument Version                12.00
Start (nm)                        800.00
Stop (nm)                         200.00
X Mode                            Nanometers
Y Mode                            Abs
UV-Vis Scan Rate (nm/min)         200.000
UV-Vis Data Interval (nm)         1.000
UV-Vis Ave. Time (sec)            0.300
UV-Vis SBW (nm)                   2.0
Beam Mode                         Double
Signal-to-noise Mode              Off
UV Source                         On
Vis Source                        On
Source Changeover (nm)            385.00
Baseline Correction               On
Baseline Type                     Baseline correction
Baseline File Name
Baseline Std Ref File Name
Cycle Mode                        Off
Comments
Method Log     :
Method Name    :
Date/Time stamp: 01/08/2022 08:47:27
Method Modifications:
UVVIS SAT Changed: 01/08/2022 08:49:55, Old: 0.100, New: 0.300
Common SAT Changed: 01/08/2022 08:49:55, Old: 0.100, New: 0.300
Source changeover Changed: 01/08/2022 08:50:21, Old:   350.00, New:   385.00
Baseline Correction Changed: 01/08/2022 08:50:21, Old:0, New:1
End Method Modifications
<SBW (nm)> , 2.00
<Energy> , 255.00
<Current Wavelength> , 200.00

blank,
blank
Collection Time: 01/08/2022 12:52:37
Operator Name  :
Scan Software Version: 4.10(464)
Parameter List :
Instrument                        Cary 300
Instrument Version                12.00
Start (nm)                        800.00
Stop (nm)                         200.00
X Mode                            Nanometers
Y Mode                            Abs
UV-Vis Scan Rate (nm/min)         200.000
UV-Vis Data Interval (nm)         1.000
UV-Vis Ave. Time (sec)            0.300
UV-Vis SBW (nm)                   2.0
Beam Mode                         Double
Signal-to-noise Mode              Off
UV Source                         On
Vis Source                        On
Source Changeover (nm)            385.00
Baseline Correction               On
Baseline Type                     Baseline correction
Baseline File Name
Baseline Std Ref File Name
Cycle Mode                        Off
Comments
Method Log     :
Method Name    :
Date/Time stamp: 01/08/2022 08:47:27
Method Modifications:
UVVIS SAT Changed: 01/08/2022 08:49:55, Old: 0.100, New: 0.300
Common SAT Changed: 01/08/2022 08:49:55, Old: 0.100, New: 0.300
Source changeover Changed: 01/08/2022 08:50:21, Old:   350.00, New:   385.00
Baseline Correction Changed: 01/08/2022 08:50:21, Old:0, New:1
End Method Modifications
<SBW (nm)> , 2.00
<Energy> , 255.00
<Current Wavelength> , 200.00

DDAO-200uL+2000uL tampon,
DDAO-200uL+2000uL tampon
Collection Time: 01/08/2022 12:56:59
Operator Name  :
Scan Software Version: 4.10(464)
Parameter List :
Instrument                        Cary 300
Instrument Version                12.00
Start (nm)                        800.00
Stop (nm)                         200.00
X Mode                            Nanometers
Y Mode                            Abs
UV-Vis Scan Rate (nm/min)         200.000
UV-Vis Data Interval (nm)         1.000
UV-Vis Ave. Time (sec)            0.300
UV-Vis SBW (nm)                   2.0
Beam Mode                         Double
Signal-to-noise Mode              Off
UV Source                         On
Vis Source                        On
Source Changeover (nm)            385.00
Baseline Correction               On
Baseline Type                     Baseline correction
Baseline File Name
Baseline Std Ref File Name
Cycle Mode                        Off
Comments
Method Log     :
Method Name    :
Date/Time stamp: 01/08/2022 08:47:27
Method Modifications:
UVVIS SAT Changed: 01/08/2022 08:49:55, Old: 0.100, New: 0.300
Common SAT Changed: 01/08/2022 08:49:55, Old: 0.100, New: 0.300
Source changeover Changed: 01/08/2022 08:50:21, Old:   350.00, New:   385.00
Baseline Correction Changed: 01/08/2022 08:50:21, Old:0, New:1
End Method Modifications
<SBW (nm)> , 2.00
<Energy> , 255.00
<Current Wavelength> , 200.00

DDAO-400uL+2000uL tampon,
DDAO-400uL+2000uL tampon
Collection Time: 01/08/2022 13:01:13
Operator Name  :
Scan Software Version: 4.10(464)
Parameter List :
Instrument                        Cary 300
Instrument Version                12.00
Start (nm)                        800.00
Stop (nm)                         200.00
X Mode                            Nanometers
Y Mode                            Abs
UV-Vis Scan Rate (nm/min)         200.000
UV-Vis Data Interval (nm)         1.000
UV-Vis Ave. Time (sec)            0.300
UV-Vis SBW (nm)                   2.0
Beam Mode                         Double
Signal-to-noise Mode              Off
UV Source                         On
Vis Source                        On
Source Changeover (nm)            385.00
Baseline Correction               On
Baseline Type                     Baseline correction
Baseline File Name
Baseline Std Ref File Name
Cycle Mode                        Off
Comments
Method Log     :
Method Name    :
Date/Time stamp: 01/08/2022 08:47:27
Method Modifications:
UVVIS SAT Changed: 01/08/2022 08:49:55, Old: 0.100, New: 0.300
Common SAT Changed: 01/08/2022 08:49:55, Old: 0.100, New: 0.300
Source changeover Changed: 01/08/2022 08:50:21, Old:   350.00, New:   385.00
Baseline Correction Changed: 01/08/2022 08:50:21, Old:0, New:1
End Method Modifications
<SBW (nm)> , 2.00
<Energy> , 255.00
<Current Wavelength> , 200.00

DDAO-600uL+2000uL tampon1,
DDAO-600uL+2000uL tampon1
Collection Time: 01/08/2022 13:05:09
Operator Name  :
Scan Software Version: 4.10(464)
Parameter List :
Instrument                        Cary 300
Instrument Version                12.00
Start (nm)                        800.00
Stop (nm)                         200.00
X Mode                            Nanometers
Y Mode                            Abs
UV-Vis Scan Rate (nm/min)         200.000
UV-Vis Data Interval (nm)         1.000
UV-Vis Ave. Time (sec)            0.300
UV-Vis SBW (nm)                   2.0
Beam Mode                         Double
Signal-to-noise Mode              Off
UV Source                         On
Vis Source                        On
Source Changeover (nm)            385.00
Baseline Correction               On
Baseline Type                     Baseline correction
Baseline File Name
Baseline Std Ref File Name
Cycle Mode                        Off
Comments
Method Log     :
Method Name    :
Date/Time stamp: 01/08/2022 08:47:27
Method Modifications:
UVVIS SAT Changed: 01/08/2022 08:49:55, Old: 0.100, New: 0.300
Common SAT Changed: 01/08/2022 08:49:55, Old: 0.100, New: 0.300
Source changeover Changed: 01/08/2022 08:50:21, Old:   350.00, New:   385.00
Baseline Correction Changed: 01/08/2022 08:50:21, Old:0, New:1
End Method Modifications
<SBW (nm)> , 2.00
<Energy> , 255.00
<Current Wavelength> , 200.00

DDAO-600uL+2000uL tampon2,
DDAO-600uL+2000uL tampon2
Collection Time: 01/08/2022 13:09:20
Operator Name  :
Scan Software Version: 4.10(464)
Parameter List :
Instrument                        Cary 300
Instrument Version                12.00
Start (nm)                        800.00
Stop (nm)                         200.00
X Mode                            Nanometers
Y Mode                            Abs
UV-Vis Scan Rate (nm/min)         200.000
UV-Vis Data Interval (nm)         1.000
UV-Vis Ave. Time (sec)            0.300
UV-Vis SBW (nm)                   2.0
Beam Mode                         Double
Signal-to-noise Mode              Off
UV Source                         On
Vis Source                        On
Source Changeover (nm)            385.00
Baseline Correction               On
Baseline Type                     Baseline correction
Baseline File Name
Baseline Std Ref File Name
Cycle Mode                        Off
Comments
Method Log     :
Method Name    :
Date/Time stamp: 01/08/2022 08:47:27
Method Modifications:
UVVIS SAT Changed: 01/08/2022 08:49:55, Old: 0.100, New: 0.300
Common SAT Changed: 01/08/2022 08:49:55, Old: 0.100, New: 0.300
Source changeover Changed: 01/08/2022 08:50:21, Old:   350.00, New:   385.00
Baseline Correction Changed: 01/08/2022 08:50:21, Old:0, New:1
End Method Modifications
<SBW (nm)> , 2.00
<Energy> , 255.00
<Current Wavelength> , 200.00

DDAO-800uL+2000uL tampon3,
DDAO-800uL+2000uL tampon3
Collection Time: 01/08/2022 13:13:48
Operator Name  :
Scan Software Version: 4.10(464)
Parameter List :
Instrument                        Cary 300
Instrument Version                12.00
Start (nm)                        800.00
Stop (nm)                         200.00
X Mode                            Nanometers
Y Mode                            Abs
UV-Vis Scan Rate (nm/min)         200.000
UV-Vis Data Interval (nm)         1.000
UV-Vis Ave. Time (sec)            0.300
UV-Vis SBW (nm)                   2.0
Beam Mode                         Double
Signal-to-noise Mode              Off
UV Source                         On
Vis Source                        On
Source Changeover (nm)            385.00
Baseline Correction               On
Baseline Type                     Baseline correction
Baseline File Name
Baseline Std Ref File Name
Cycle Mode                        Off
Comments
Method Log     :
Method Name    :
Date/Time stamp: 01/08/2022 08:47:27
Method Modifications:
UVVIS SAT Changed: 01/08/2022 08:49:55, Old: 0.100, New: 0.300
Common SAT Changed: 01/08/2022 08:49:55, Old: 0.100, New: 0.300
Source changeover Changed: 01/08/2022 08:50:21, Old:   350.00, New:   385.00
Baseline Correction Changed: 01/08/2022 08:50:21, Old:0, New:1
End Method Modifications
<SBW (nm)> , 2.00
<Energy> , 255.00
<Current Wavelength> , 200.00

